0.0000	-0.0938	-0.1641	-0.0703	0.1289	-0.0117	-0.1172	0.0469	0.0469	-0.0059	-0.0879	-0.0996	-0.0879
0.0034	-0.0996	-0.1523	-0.0527	0.1260	-0.0234	-0.1025	0.0586	0.0586	-0.0117	-0.0820	-0.0938	-0.0879
0.0068	-0.0996	-0.1406	-0.0410	0.1201	-0.0293	-0.0908	0.0586	0.0586	-0.0059	-0.0762	-0.0879	-0.0762
0.0101	-0.0820	-0.1230	-0.0410	0.1025	-0.0205	-0.0820	0.0469	0.0586	0.0000	-0.0645	-0.0762	-0.0645
0.0135	-0.0645	-0.1055	-0.0410	0.0850	-0.0117	-0.0732	0.0410	0.0586	0.0059	-0.0527	-0.0586	-0.0527
0.0169	-0.0527	-0.0938	-0.0410	0.0732	-0.0059	-0.0674	0.0352	0.0527	0.0059	-0.0410	-0.0469	-0.0410
0.0203	-0.0410	-0.0820	-0.0410	0.0615	0.0000	-0.0615	0.0352	0.0469	0.0059	-0.0352	-0.0352	-0.0352
0.0236	-0.0410	-0.0820	-0.0410	0.0615	0.0000	-0.0615	0.0352	0.0469	0.0059	-0.0293	-0.0410	-0.0293
0.0270	-0.0469	-0.0820	-0.0352	0.0645	-0.0059	-0.0586	0.0469	0.0469	0.0059	-0.0293	-0.0410	-0.0293
0.0304	-0.0586	-0.0820	-0.0234	0.0703	-0.0176	-0.0527	0.0469	0.0527	0.0059	-0.0293	-0.0410	-0.0293
0.0338	-0.0586	-0.0762	-0.0176	0.0674	-0.0205	-0.0469	0.0469	0.0586	0.0059	-0.0293	-0.0352	-0.0352
0.0372	-0.0469	-0.0703	-0.0234	0.0586	-0.0117	-0.0469	0.0410	0.0527	0.0059	-0.0293	-0.0352	-0.0293
0.0405	-0.0352	-0.0586	-0.0234	0.0469	-0.0059	-0.0410	0.0352	0.0469	0.0059	-0.0234	-0.0234	-0.0234
0.0439	-0.0234	-0.0469	-0.0234	0.0352	0.0000	-0.0352	0.0293	0.0410	0.0059	-0.0176	-0.0176	-0.0117
0.0473	-0.0176	-0.0410	-0.0234	0.0293	0.0029	-0.0322	0.0234	0.0410	0.0059	-0.0117	-0.0059	-0.0059
0.0507	-0.0117	-0.0352	-0.0234	0.0234	0.0059	-0.0293	0.0234	0.0352	0.0059	-0.0059	-0.0059	-0.0117
0.0541	-0.0176	-0.0352	-0.0176	0.0264	0.0000	-0.0264	0.0234	0.0293	0.0059	-0.0059	-0.0059	-0.0117
0.0574	-0.0234	-0.0293	-0.0059	0.0264	-0.0088	-0.0176	0.0293	0.0293	0.0059	-0.0059	-0.0059	-0.0117
0.0608	-0.0234	-0.0234	0.0000	0.0234	-0.0117	-0.0117	0.0293	0.0293	0.0059	-0.0059	-0.0059	-0.0117
0.0642	-0.0176	-0.0176	0.0000	0.0176	-0.0088	-0.0088	0.0234	0.0293	0.0059	-0.0059	-0.0059	-0.0059
0.0676	-0.0117	-0.0059	0.0059	0.0088	-0.0088	0.0000	0.0176	0.0293	0.0059	0.0000	0.0000	0.0000
0.0709	-0.0059	0.0000	0.0059	0.0029	-0.0059	0.0029	0.0117	0.0234	0.0059	0.0059	0.0059	0.0000
0.0743	0.0000	0.0059	0.0059	-0.0029	-0.0029	0.0059	0.0176	0.0176	0.0059	0.0117	0.0117	0.0000
0.0777	0.0059	0.0176	0.0117	-0.0117	-0.0029	0.0146	0.0176	0.0176	0.0117	0.0176	0.0176	0.0059
0.0811	0.0117	0.0176	0.0059	-0.0146	0.0029	0.0117	0.0176	0.0176	0.0176	0.0234	0.0176	0.0117
0.0845	0.0117	0.0176	0.0059	-0.0146	0.0029	0.0117	0.0117	0.0293	0.0176	0.0293	0.0176	0.0117
0.0878	0.0117	0.0234	0.0117	-0.0176	0.0000	0.0176	0.0059	0.0293	0.0176	0.0293	0.0176	0.0117
0.0912	0.0117	0.0293	0.0176	-0.0205	-0.0029	0.0234	0.0059	0.0293	0.0176	0.0234	0.0234	0.0117
0.0946	0.0176	0.0352	0.0176	-0.0264	0.0000	0.0264	0.0059	0.0352	0.0234	0.0293	0.0293	0.0176
0.0980	0.0234	0.0410	0.0176	-0.0322	0.0029	0.0293	0.0059	0.0410	0.0293	0.0352	0.0293	0.0234
0.1014	0.0352	0.0527	0.0176	-0.0439	0.0088	0.0352	0.0059	0.0410	0.0293	0.0352	0.0352	0.0234
0.1047	0.0410	0.0586	0.0176	-0.0498	0.0117	0.0381	0.0059	0.0410	0.0352	0.0410	0.0410	0.0293
0.1081	0.0469	0.0703	0.0234	-0.0586	0.0117	0.0469	0.0059	0.0410	0.0410	0.0469	0.0469	0.0293
0.1115	0.0527	0.0762	0.0234	-0.0645	0.0146	0.0498	0.0059	0.0469	0.0469	0.0527	0.0469	0.0352
0.1149	0.0527	0.0820	0.0293	-0.0674	0.0117	0.0557	0.0059	0.0527	0.0527	0.0586	0.0527	0.0410
0.1182	0.0586	0.0938	0.0352	-0.0762	0.0117	0.0645	0.0059	0.0586	0.0527	0.0586	0.0586	0.0410
0.1216	0.0645	0.0996	0.0352	-0.0820	0.0146	0.0674	-0.0059	0.0586	0.0527	0.0645	0.0586	0.0469
0.1250	0.0703	0.1055	0.0352	-0.0879	0.0176	0.0703	-0.0059	0.0645	0.0586	0.0703	0.0645	0.0469
0.1284	0.0762	0.1113	0.0352	-0.0938	0.0205	0.0732	-0.0059	0.0703	0.0645	0.0703	0.0703	0.0469
0.1318	0.0879	0.1172	0.0293	-0.1025	0.0293	0.0732	-0.0059	0.0703	0.0645	0.0762	0.0703	0.0527
0.1351	0.0938	0.1289	0.0352	-0.1113	0.0293	0.0820	-0.0117	0.0762	0.0703	0.0820	0.0762	0.0586
0.1385	0.0996	0.1406	0.0410	-0.1201	0.0293	0.0908	-0.0176	0.0820	0.0762	0.0879	0.0820	0.0645
0.1419	0.1113	0.1523	0.0410	-0.1318	0.0352	0.0967	-0.0176	0.0820	0.0762	0.0938	0.0879	0.0703
0.1453	0.1172	0.1699	0.0527	-0.1436	0.0322	0.1113	-0.0176	0.0820	0.0762	0.0938	0.0938	0.0762
0.1486	0.1230	0.1875	0.0645	-0.1553	0.0293	0.1260	-0.0176	0.0820	0.0762	0.0996	0.0996	0.0820
0.1520	0.1348	0.1992	0.0645	-0.1670	0.0352	0.1318	-0.0234	0.0820	0.0762	0.0996	0.1055	0.0879
0.1554	0.1465	0.2109	0.0645	-0.1787	0.0410	0.1377	-0.0293	0.0762	0.0762	0.1113	0.1113	0.0938
0.1588	0.1523	0.2168	0.0645	-0.1846	0.0439	0.1406	-0.0293	0.0703	0.0762	0.1113	0.1172	0.0938
0.1622	0.1582	0.2285	0.0703	-0.1934	0.0439	0.1494	-0.0352	0.0703	0.0820	0.1172	0.1172	0.0996
0.1655	0.1582	0.2402	0.0820	-0.1992	0.0381	0.1611	-0.0410	0.0703	0.0820	0.1172	0.1172	0.1055
0.1689	0.1582	0.2520	0.0938	-0.2051	0.0322	0.1729	-0.0410	0.0645	0.0762	0.1172	0.1172	0.0996
0.1723	0.1582	0.2520	0.0938	-0.2051	0.0322	0.1729	-0.0410	0.0586	0.0703	0.1172	0.1172	0.1055
0.1757	0.1582	0.2578	0.0996	-0.2080	0.0293	0.1787	-0.0469	0.0469	0.0645	0.1172	0.1172	0.1113
0.1791	0.1582	0.2637	0.1055	-0.2109	0.0264	0.1846	-0.0527	0.0410	0.0586	0.1172	0.1172	0.1172
0.1824	0.1582	0.2637	0.1055	-0.2109	0.0264	0.1846	-0.0469	0.0352	0.0527	0.1113	0.1172	0.1113
0.1858	0.1582	0.2637	0.1055	-0.2109	0.0264	0.1846	-0.0469	0.0234	0.0527	0.1055	0.1172	0.1113
0.1892	0.1582	0.2695	0.1113	-0.2139	0.0234	0.1904	-0.0527	0.0176	0.0469	0.1055	0.1113	0.1113
0.1926	0.1582	0.2754	0.1172	-0.2168	0.0205	0.1963	-0.0586	0.0117	0.0410	0.1055	0.1055	0.1113
0.1959	0.1523	0.2695	0.1172	-0.2109	0.0176	0.1934	-0.0586	0.0059	0.0352	0.0996	0.1055	0.1055
0.1993	0.1465	0.2637	0.1172	-0.2051	0.0146	0.1904	-0.0586	-0.0059	0.0293	0.0938	0.1055	0.0996
0.2027	0.1348	0.2578	0.1230	-0.1963	0.0059	0.1904	-0.0586	-0.0176	0.0234	0.0879	0.0996	0.0996
0.2061	0.1289	0.2461	0.1172	-0.1875	0.0059	0.1816	-0.0586	-0.0293	0.0176	0.0879	0.0938	0.0938
0.2095	0.1172	0.2285	0.1113	-0.1729	0.0029	0.1699	-0.0586	-0.0410	0.0059	0.0820	0.0879	0.0879
0.2128	0.1055	0.2109	0.1055	-0.1582	0.0000	0.1582	-0.0586	-0.0527	0.0000	0.0762	0.0820	0.0762
0.2162	0.0938	0.1875	0.0938	-0.1406	0.0000	0.1406	-0.0586	-0.0645	-0.0059	0.0645	0.0703	0.0703
0.2196	0.0762	0.1641	0.0879	-0.1201	-0.0059	0.1260	-0.0586	-0.0762	-0.0176	0.0586	0.0586	0.0645
0.2230	0.0586	0.1406	0.0820	-0.0996	-0.0117	0.1113	-0.0586	-0.0879	-0.0293	0.0527	0.0527	0.0527
0.2264	0.0469	0.1172	0.0703	-0.0820	-0.0117	0.0938	-0.0527	-0.0996	-0.0352	0.0410	0.0410	0.0410
0.2297	0.0352	0.0938	0.0586	-0.0645	-0.0117	0.0762	-0.0469	-0.1113	-0.0469	0.0293	0.0293	0.0293
0.2331	0.0234	0.0703	0.0469	-0.0469	-0.0117	0.0586	-0.0410	-0.1230	-0.0527	0.0176	0.0176	0.0234
0.2365	0.0000	0.0469	0.0469	-0.0234	-0.0234	0.0469	-0.0352	-0.1289	-0.0645	0.0117	0.0117	0.0176
0.2399	-0.0117	0.0234	0.0352	-0.0059	-0.0234	0.0293	-0.0352	-0.1348	-0.0645	0.0059	0.0059	0.0059
0.2432	-0.0176	0.0059	0.0234	0.0059	-0.0205	0.0146	-0.0352	-0.1406	-0.0645	0.0000	0.0000	0.0000
0.2466	-0.0176	-0.0117	0.0059	0.0146	-0.0117	-0.0029	-0.0352	-0.1465	-0.0703	-0.0059	-0.0059	-0.0059
0.2500	-0.0293	-0.0293	0.0000	0.0293	-0.0146	-0.0146	-0.0352	-0.1523	-0.0762	-0.0117	-0.0117	-0.0117
0.2534	-0.0352	-0.0352	0.0000	0.0352	-0.0176	-0.0176	-0.0352	-0.1582	-0.0762	-0.0176	-0.0176	-0.0176
0.2568	-0.0352	-0.0410	-0.0059	0.0381	-0.0146	-0.0234	-0.0410	-0.1523	-0.0762	-0.0176	-0.0176	-0.0176
0.2601	-0.0352	-0.0469	-0.0117	0.0410	-0.0117	-0.0293	-0.0469	-0.1523	-0.0762	-0.0234	-0.0234	-0.0176
0.2635	-0.0352	-0.0527	-0.0176	0.0439	-0.0088	-0.0352	-0.0469	-0.1523	-0.0762	-0.0293	-0.0293	-0.0176
0.2669	-0.0352	-0.0527	-0.0176	0.0439	-0.0088	-0.0352	-0.0469	-0.1523	-0.0703	-0.0293	-0.0293	-0.0176
0.2703	-0.0352	-0.0527	-0.0176	0.0439	-0.0088	-0.0352	-0.0469	-0.1465	-0.0645	-0.0293	-0.0293	-0.0176
0.2736	-0.0352	-0.0527	-0.0176	0.0439	-0.0088	-0.0352	-0.0410	-0.1406	-0.0645	-0.0293	-0.0293	-0.0176
0.2770	-0.0352	-0.0527	-0.0176	0.0439	-0.0088	-0.0352	-0.0410	-0.1406	-0.0645	-0.0293	-0.0293	-0.0176
0.2804	-0.0352	-0.0469	-0.0117	0.0410	-0.0117	-0.0293	-0.0410	-0.1406	-0.0645	-0.0293	-0.0234	-0.0234
0.2838	-0.0352	-0.0410	-0.0059	0.0381	-0.0146	-0.0234	-0.0410	-0.1406	-0.0645	-0.0234	-0.0176	-0.0234
0.2872	-0.0293	-0.0469	-0.0176	0.0381	-0.0059	-0.0322	-0.0410	-0.1348	-0.0645	-0.0176	-0.0176	-0.0176
0.2905	-0.0293	-0.0410	-0.0117	0.0352	-0.0088	-0.0264	-0.0410	-0.1289	-0.0586	-0.0176	-0.0176	-0.0117
0.2939	-0.0234	-0.0352	-0.0117	0.0293	-0.0059	-0.0234	-0.0410	-0.1289	-0.0527	-0.0176	-0.0176	-0.0117
0.2973	-0.0176	-0.0352	-0.0176	0.0264	0.0000	-0.0264	-0.0410	-0.1230	-0.0527	-0.0176	-0.0176	-0.0117
0.3007	-0.0117	-0.0293	-0.0176	0.0205	0.0029	-0.0234	-0.0410	-0.1172	-0.0527	-0.0117	-0.0117	-0.0117
0.3041	-0.0176	-0.0234	-0.0059	0.0205	-0.0059	-0.0146	-0.0410	-0.1113	-0.0469	-0.0059	-0.0059	-0.0117
0.3074	-0.0176	-0.0234	-0.0059	0.0205	-0.0059	-0.0146	-0.0410	-0.1055	-0.0410	-0.0117	-0.0059	-0.0117
0.3108	-0.0176	-0.0176	0.0000	0.0176	-0.0088	-0.0088	-0.0410	-0.0996	-0.0410	-0.0117	-0.0059	-0.0117
0.3142	-0.0176	-0.0176	0.0000	0.0176	-0.0088	-0.0088	-0.0410	-0.0938	-0.0410	-0.0059	-0.0059	-0.0117
0.3176	-0.0117	-0.0117	0.0000	0.0117	-0.0059	-0.0059	-0.0352	-0.0879	-0.0352	0.0000	-0.0117	-0.0059
0.3209	-0.0059	-0.0059	0.0000	0.0059	-0.0029	-0.0029	-0.0293	-0.0879	-0.0293	0.0000	-0.0059	0.0000
0.3243	-0.0059	0.0000	0.0059	0.0029	-0.0059	0.0029	-0.0293	-0.0879	-0.0293	0.0000	0.0000	0.0000
0.3277	-0.0059	0.0059	0.0117	0.0000	-0.0088	0.0088	-0.0293	-0.0820	-0.0293	0.0000	0.0000	0.0000
0.3311	0.0000	0.0117	0.0117	-0.0059	-0.0059	0.0117	-0.0293	-0.0762	-0.0293	0.0000	0.0000	0.0000
0.3345	0.0059	0.0176	0.0117	-0.0117	-0.0029	0.0146	-0.0293	-0.0762	-0.0293	0.0000	0.0059	0.0117
0.3378	0.0059	0.0176	0.0117	-0.0117	-0.0029	0.0146	-0.0293	-0.0762	-0.0293	0.0000	0.0117	0.0117
0.3412	0.0059	0.0234	0.0176	-0.0146	-0.0059	0.0205	-0.0352	-0.0703	-0.0234	0.0059	0.0117	0.0117
0.3446	0.0059	0.0293	0.0234	-0.0176	-0.0088	0.0264	-0.0410	-0.0645	-0.0176	0.0117	0.0117	0.0117
0.3480	0.0059	0.0293	0.0234	-0.0176	-0.0088	0.0264	-0.0410	-0.0645	-0.0176	0.0117	0.0117	0.0117
0.3514	0.0059	0.0352	0.0293	-0.0205	-0.0117	0.0322	-0.0410	-0.0645	-0.0176	0.0117	0.0117	0.0117
0.3547	0.0059	0.0410	0.0352	-0.0234	-0.0146	0.0381	-0.0410	-0.0586	-0.0176	0.0176	0.0117	0.0117
0.3581	0.0059	0.0410	0.0352	-0.0234	-0.0146	0.0381	-0.0352	-0.0527	-0.0176	0.0176	0.0117	0.0117
0.3615	0.0117	0.0410	0.0293	-0.0264	-0.0088	0.0352	-0.0293	-0.0469	-0.0176	0.0234	0.0117	0.0117
0.3649	0.0176	0.0469	0.0293	-0.0322	-0.0059	0.0381	-0.0234	-0.0469	-0.0176	0.0234	0.0117	0.0117
0.3682	0.0117	0.0527	0.0410	-0.0322	-0.0146	0.0469	-0.0234	-0.0527	-0.0176	0.0234	0.0176	0.0117
0.3716	0.0117	0.0527	0.0410	-0.0322	-0.0146	0.0469	-0.0234	-0.0469	-0.0117	0.0234	0.0234	0.0176
0.3750	0.0176	0.0469	0.0293	-0.0322	-0.0059	0.0381	-0.0234	-0.0469	-0.0059	0.0234	0.0234	0.0234
0.3784	0.0234	0.0527	0.0293	-0.0381	-0.0029	0.0410	-0.0234	-0.0469	-0.0059	0.0234	0.0234	0.0234
0.3818	0.0293	0.0586	0.0293	-0.0439	0.0000	0.0439	-0.0234	-0.0469	-0.0059	0.0234	0.0234	0.0176
0.3851	0.0234	0.0586	0.0352	-0.0410	-0.0059	0.0469	-0.0234	-0.0469	-0.0059	0.0234	0.0234	0.0234
0.3885	0.0234	0.0586	0.0352	-0.0410	-0.0059	0.0469	-0.0234	-0.0469	-0.0059	0.0234	0.0234	0.0176
0.3919	0.0234	0.0586	0.0352	-0.0410	-0.0059	0.0469	-0.0234	-0.0469	-0.0059	0.0234	0.0234	0.0176
0.3953	0.0234	0.0586	0.0352	-0.0410	-0.0059	0.0469	-0.0234	-0.0352	-0.0059	0.0234	0.0234	0.0176
0.3986	0.0234	0.0586	0.0352	-0.0410	-0.0059	0.0469	-0.0234	-0.0352	-0.0059	0.0234	0.0234	0.0176
0.4020	0.0234	0.0586	0.0352	-0.0410	-0.0059	0.0469	-0.0234	-0.0352	-0.0059	0.0176	0.0234	0.0176
0.4054	0.0234	0.0586	0.0352	-0.0410	-0.0059	0.0469	-0.0234	-0.0352	-0.0059	0.0176	0.0176	0.0176
0.4088	0.0352	0.0527	0.0176	-0.0439	0.0088	0.0352	-0.0234	-0.0352	-0.0059	0.0234	0.0176	0.0176
0.4122	0.0352	0.0469	0.0117	-0.0410	0.0117	0.0293	-0.0234	-0.0352	-0.0059	0.0234	0.0234	0.0176
0.4155	0.0352	0.0469	0.0117	-0.0410	0.0117	0.0293	-0.0234	-0.0352	-0.0059	0.0176	0.0234	0.0176
0.4189	0.0234	0.0469	0.0234	-0.0352	0.0000	0.0352	-0.0234	-0.0352	-0.0059	0.0176	0.0176	0.0176
0.4223	0.0234	0.0410	0.0176	-0.0322	0.0029	0.0293	-0.0234	-0.0352	-0.0059	0.0176	0.0176	0.0176
0.4257	0.0234	0.0410	0.0176	-0.0322	0.0029	0.0293	-0.0234	-0.0293	-0.0059	0.0176	0.0176	0.0176
0.4291	0.0234	0.0410	0.0176	-0.0322	0.0029	0.0293	-0.0234	-0.0293	-0.0059	0.0176	0.0176	0.0176
0.4324	0.0293	0.0410	0.0117	-0.0352	0.0088	0.0264	-0.0234	-0.0293	-0.0059	0.0176	0.0176	0.0176
0.4358	0.0352	0.0410	0.0059	-0.0381	0.0146	0.0234	-0.0234	-0.0293	-0.0059	0.0176	0.0176	0.0176
0.4392	0.0352	0.0410	0.0059	-0.0381	0.0146	0.0234	-0.0176	-0.0293	-0.0059	0.0176	0.0176	0.0176
0.4426	0.0352	0.0410	0.0059	-0.0381	0.0146	0.0234	-0.0176	-0.0293	-0.0059	0.0176	0.0176	0.0176
0.4459	0.0352	0.0410	0.0059	-0.0381	0.0146	0.0234	-0.0234	-0.0293	-0.0059	0.0176	0.0176	0.0176
0.4493	0.0293	0.0410	0.0117	-0.0352	0.0088	0.0264	-0.0293	-0.0293	-0.0059	0.0176	0.0176	0.0176
0.4527	0.0234	0.0410	0.0176	-0.0322	0.0029	0.0293	-0.0234	-0.0293	-0.0059	0.0176	0.0176	0.0176
0.4561	0.0176	0.0410	0.0234	-0.0293	-0.0029	0.0322	-0.0176	-0.0293	-0.0059	0.0176	0.0176	0.0176
0.4595	0.0176	0.0410	0.0234	-0.0293	-0.0029	0.0322	-0.0176	-0.0293	-0.0059	0.0176	0.0176	0.0176
0.4628	0.0176	0.0352	0.0176	-0.0264	0.0000	0.0264	-0.0176	-0.0293	0.0000	0.0117	0.0176	0.0176
0.4662	0.0176	0.0352	0.0176	-0.0264	0.0000	0.0264	-0.0176	-0.0293	0.0000	0.0059	0.0176	0.0176
0.4696	0.0176	0.0352	0.0176	-0.0264	0.0000	0.0264	-0.0176	-0.0293	-0.0059	0.0059	0.0176	0.0176
0.4730	0.0176	0.0352	0.0176	-0.0264	0.0000	0.0264	-0.0176	-0.0293	-0.0117	0.0059	0.0176	0.0176
0.4764	0.0176	0.0352	0.0176	-0.0264	0.0000	0.0264	-0.0176	-0.0293	-0.0059	0.0117	0.0176	0.0176
0.4797	0.0176	0.0352	0.0176	-0.0264	0.0000	0.0264	-0.0176	-0.0293	-0.0059	0.0176	0.0176	0.0176
0.4831	0.0176	0.0352	0.0176	-0.0264	0.0000	0.0264	-0.0176	-0.0293	0.0000	0.0176	0.0176	0.0176
0.4865	0.0176	0.0352	0.0176	-0.0264	0.0000	0.0264	-0.0176	-0.0234	-0.0059	0.0176	0.0176	0.0176
0.4899	0.0176	0.0352	0.0176	-0.0264	0.0000	0.0264	-0.0176	-0.0234	-0.0059	0.0176	0.0176	0.0176
0.4932	0.0176	0.0352	0.0176	-0.0264	0.0000	0.0264	-0.0176	-0.0234	-0.0059	0.0176	0.0176	0.0117
0.4966	0.0176	0.0352	0.0176	-0.0264	0.0000	0.0264	-0.0176	-0.0234	-0.0059	0.0176	0.0176	0.0117
0.5000	0.0176	0.0352	0.0176	-0.0264	0.0000	0.0264	-0.0176	-0.0234	-0.0059	0.0117	0.0176	0.0117
0.5034	0.0176	0.0352	0.0176	-0.0264	0.0000	0.0264	-0.0176	-0.0234	0.0000	0.0117	0.0176	0.0117
0.5068	0.0176	0.0293	0.0117	-0.0234	0.0029	0.0205	-0.0176	-0.0234	0.0000	0.0117	0.0117	0.0117
0.5101	0.0176	0.0293	0.0117	-0.0234	0.0029	0.0205	-0.0176	-0.0234	0.0000	0.0176	0.0117	0.0117
0.5135	0.0176	0.0293	0.0117	-0.0234	0.0029	0.0205	-0.0176	-0.0234	0.0000	0.0176	0.0176	0.0117
0.5169	0.0176	0.0293	0.0117	-0.0234	0.0029	0.0205	-0.0176	-0.0234	0.0000	0.0117	0.0117	0.0117
0.5203	0.0176	0.0293	0.0117	-0.0234	0.0029	0.0205	-0.0176	-0.0234	0.0000	0.0117	0.0117	0.0117
0.5236	0.0176	0.0293	0.0117	-0.0234	0.0029	0.0205	-0.0176	-0.0234	0.0000	0.0117	0.0117	0.0117
0.5270	0.0176	0.0293	0.0117	-0.0234	0.0029	0.0205	-0.0176	-0.0234	0.0000	0.0117	0.0117	0.0117
0.5304	0.0176	0.0293	0.0117	-0.0234	0.0029	0.0205	-0.0176	-0.0234	0.0000	0.0117	0.0117	0.0117
0.5338	0.0176	0.0293	0.0117	-0.0234	0.0029	0.0205	-0.0176	-0.0234	0.0000	0.0117	0.0117	0.0117
0.5372	0.0176	0.0293	0.0117	-0.0234	0.0029	0.0205	-0.0117	-0.0234	0.0000	0.0117	0.0117	0.0117
0.5405	0.0176	0.0293	0.0117	-0.0234	0.0029	0.0205	-0.0117	-0.0234	0.0000	0.0176	0.0117	0.0117
0.5439	0.0117	0.0293	0.0176	-0.0205	-0.0029	0.0234	-0.0117	-0.0234	-0.0059	0.0234	0.0117	0.0117
0.5473	0.0117	0.0293	0.0176	-0.0205	-0.0029	0.0234	-0.0117	-0.0234	0.0000	0.0234	0.0117	0.0117
0.5507	0.0117	0.0293	0.0176	-0.0205	-0.0029	0.0234	-0.0117	-0.0176	0.0059	0.0176	0.0117	0.0117
0.5541	0.0117	0.0293	0.0176	-0.0205	-0.0029	0.0234	-0.0117	-0.0176	0.0117	0.0117	0.0117	0.0117
0.5574	0.0117	0.0293	0.0176	-0.0205	-0.0029	0.0234	-0.0117	-0.0176	0.0059	0.0117	0.0117	0.0117
0.5608	0.0117	0.0234	0.0117	-0.0176	0.0000	0.0176	-0.0117	-0.0176	0.0000	0.0117	0.0117	0.0117
0.5642	0.0117	0.0234	0.0117	-0.0176	0.0000	0.0176	-0.0117	-0.0176	0.0000	0.0117	0.0117	0.0117
0.5676	0.0117	0.0234	0.0117	-0.0176	0.0000	0.0176	-0.0117	-0.0176	0.0000	0.0117	0.0117	0.0117
0.5709	0.0117	0.0234	0.0117	-0.0176	0.0000	0.0176	-0.0117	-0.0176	0.0000	0.0117	0.0117	0.0117
0.5743	0.0117	0.0234	0.0117	-0.0176	0.0000	0.0176	-0.0117	-0.0176	0.0000	0.0117	0.0117	0.0117
0.5777	0.0117	0.0234	0.0117	-0.0176	0.0000	0.0176	-0.0117	-0.0176	0.0000	0.0117	0.0117	0.0117
0.5811	0.0117	0.0234	0.0117	-0.0176	0.0000	0.0176	-0.0117	-0.0176	0.0000	0.0117	0.0117	0.0117
0.5845	0.0117	0.0234	0.0117	-0.0176	0.0000	0.0176	-0.0117	-0.0176	0.0000	0.0117	0.0117	0.0117
0.5878	0.0117	0.0234	0.0117	-0.0176	0.0000	0.0176	-0.0117	-0.0176	0.0000	0.0117	0.0117	0.0117
0.5912	0.0117	0.0234	0.0117	-0.0176	0.0000	0.0176	-0.0117	-0.0176	0.0000	0.0117	0.0117	0.0117
0.5946	0.0117	0.0234	0.0117	-0.0176	0.0000	0.0176	-0.0117	-0.0176	0.0000	0.0117	0.0117	0.0117
0.5980	0.0117	0.0234	0.0117	-0.0176	0.0000	0.0176	-0.0117	-0.0176	0.0000	0.0117	0.0117	0.0117
0.6014	0.0117	0.0234	0.0117	-0.0176	0.0000	0.0176	-0.0117	-0.0176	0.0000	0.0117	0.0117	0.0117
0.6047	0.0117	0.0176	0.0059	-0.0146	0.0029	0.0117	-0.0117	-0.0176	0.0000	0.0117	0.0117	0.0059
0.6081	0.0117	0.0176	0.0059	-0.0146	0.0029	0.0117	-0.0117	-0.0176	0.0000	0.0117	0.0117	0.0059
0.6115	0.0117	0.0176	0.0059	-0.0146	0.0029	0.0117	-0.0117	-0.0176	0.0000	0.0117	0.0117	0.0059
0.6149	0.0117	0.0176	0.0059	-0.0146	0.0029	0.0117	-0.0117	-0.0176	0.0000	0.0117	0.0117	0.0059
0.6182	0.0117	0.0176	0.0059	-0.0146	0.0029	0.0117	-0.0117	-0.0117	0.0000	0.0059	0.0117	0.0059
0.6216	0.0117	0.0176	0.0059	-0.0146	0.0029	0.0117	-0.0117	-0.0117	0.0000	0.0059	0.0059	0.0059
0.6250	0.0117	0.0176	0.0059	-0.0146	0.0029	0.0117	-0.0117	-0.0117	0.0000	0.0059	0.0059	0.0059
0.6284	0.0117	0.0176	0.0059	-0.0146	0.0029	0.0117	-0.0117	-0.0117	0.0000	0.0059	0.0059	0.0059
0.6318	0.0059	0.0176	0.0117	-0.0117	-0.0029	0.0146	-0.0117	-0.0117	0.0000	0.0059	0.0059	0.0059
0.6351	0.0117	0.0176	0.0059	-0.0146	0.0029	0.0117	-0.0117	-0.0117	0.0000	0.0059	0.0059	0.0059
0.6385	0.0117	0.0176	0.0059	-0.0146	0.0029	0.0117	-0.0059	-0.0117	0.0000	0.0059	0.0059	0.0059
0.6419	0.0059	0.0176	0.0117	-0.0117	-0.0029	0.0146	-0.0059	-0.0117	0.0000	0.0059	0.0059	0.0059
0.6453	0.0059	0.0176	0.0117	-0.0117	-0.0029	0.0146	-0.0059	-0.0117	0.0000	0.0059	0.0059	0.0059
0.6486	0.0059	0.0176	0.0117	-0.0117	-0.0029	0.0146	-0.0059	-0.0117	0.0000	0.0059	0.0059	0.0059
0.6520	0.0059	0.0176	0.0117	-0.0117	-0.0029	0.0146	-0.0059	-0.0117	0.0000	0.0059	0.0059	0.0059
0.6554	0.0059	0.0176	0.0117	-0.0117	-0.0029	0.0146	-0.0059	-0.0117	0.0000	0.0059	0.0059	0.0059
0.6588	0.0059	0.0176	0.0117	-0.0117	-0.0029	0.0146	-0.0059	-0.0117	0.0000	0.0059	0.0059	0.0059
0.6622	0.0059	0.0117	0.0059	-0.0088	0.0000	0.0088	-0.0059	-0.0117	0.0000	0.0059	0.0117	0.0059
0.6655	0.0059	0.0117	0.0059	-0.0088	0.0000	0.0088	-0.0059	-0.0117	0.0000	0.0059	0.0176	0.0059
0.6689	0.0059	0.0117	0.0059	-0.0088	0.0000	0.0088	-0.0059	-0.0117	0.0000	0.0059	0.0176	0.0059
0.6723	0.0059	0.0117	0.0059	-0.0088	0.0000	0.0088	-0.0059	-0.0117	0.0000	0.0059	0.0176	0.0059
0.6757	0.0059	0.0117	0.0059	-0.0088	0.0000	0.0088	-0.0059	-0.0117	0.0000	0.0059	0.0176	0.0059
0.6791	0.0059	0.0117	0.0059	-0.0088	0.0000	0.0088	-0.0059	-0.0117	0.0000	0.0059	0.0176	0.0059
0.6824	0.0059	0.0117	0.0059	-0.0088	0.0000	0.0088	-0.0059	-0.0117	0.0000	0.0059	0.0176	0.0059
0.6858	0.0059	0.0117	0.0059	-0.0088	0.0000	0.0088	-0.0059	-0.0117	0.0000	0.0059	0.0117	0.0059
0.6892	0.0000	0.0117	0.0117	-0.0059	-0.0059	0.0117	-0.0059	-0.0117	0.0000	0.0059	0.0059	0.0059
0.6926	-0.0059	0.0059	0.0117	0.0000	-0.0088	0.0088	-0.0059	-0.0059	0.0000	0.0059	0.0059	0.0059
0.6959	-0.0059	0.0000	0.0059	0.0029	-0.0059	0.0029	-0.0059	-0.0059	0.0000	0.0000	0.0059	0.0059
0.6993	-0.0059	0.0000	0.0059	0.0029	-0.0059	0.0029	-0.0059	-0.0059	0.0000	-0.0059	0.0059	0.0059
0.7027	-0.0059	-0.0059	0.0000	0.0059	-0.0029	-0.0029	-0.0059	-0.0059	-0.0059	-0.0059	0.0059	0.0059
0.7061	-0.0059	-0.0117	-0.0059	0.0088	0.0000	-0.0088	0.0000	-0.0059	-0.0117	-0.0059	0.0000	0.0059
0.7095	-0.0059	-0.0176	-0.0117	0.0117	0.0029	-0.0146	0.0059	-0.0059	-0.0117	-0.0059	-0.0059	0.0000
0.7128	-0.0059	-0.0176	-0.0117	0.0117	0.0029	-0.0146	0.0059	-0.0059	-0.0117	-0.0059	-0.0059	-0.0059
0.7162	-0.0059	-0.0117	-0.0059	0.0088	0.0000	-0.0088	0.0059	-0.0059	-0.0117	-0.0059	-0.0059	-0.0059
0.7196	-0.0059	-0.0117	-0.0059	0.0088	0.0000	-0.0088	0.0000	-0.0059	-0.0117	-0.0059	-0.0059	-0.0059
0.7230	-0.0059	-0.0176	-0.0117	0.0117	0.0029	-0.0146	-0.0059	-0.0059	-0.0059	-0.0059	-0.0059	-0.0059
0.7264	-0.0059	-0.0176	-0.0117	0.0117	0.0029	-0.0146	-0.0059	0.0000	0.0000	-0.0059	0.0000	-0.0059
0.7297	-0.0059	-0.0176	-0.0117	0.0117	0.0029	-0.0146	-0.0059	0.0059	0.0000	-0.0059	0.0059	-0.0059
0.7331	-0.0059	-0.0176	-0.0117	0.0117	0.0029	-0.0146	-0.0059	0.0059	0.0000	-0.0059	0.0059	-0.0059
0.7365	-0.0059	-0.0176	-0.0117	0.0117	0.0029	-0.0146	-0.0059	0.0059	0.0000	-0.0059	0.0059	-0.0059
0.7399	-0.0059	-0.0117	-0.0059	0.0088	0.0000	-0.0088	0.0000	0.0059	0.0000	-0.0059	0.0000	-0.0059
0.7432	-0.0059	-0.0059	0.0000	0.0059	-0.0029	-0.0029	0.0059	0.0059	0.0000	-0.0117	-0.0059	-0.0117
0.7466	-0.0117	-0.0059	0.0059	0.0088	-0.0088	0.0000	0.0059	0.0059	-0.0059	-0.0059	-0.0117	-0.0117
0.7500	-0.0117	-0.0059	0.0059	0.0088	-0.0088	0.0000	0.0059	0.0000	-0.0117	-0.0059	-0.0117	-0.0117
0.7534	-0.0117	-0.0059	0.0059	0.0088	-0.0088	0.0000	0.0059	-0.0059	-0.0117	-0.0117	-0.0059	-0.0117
0.7568	-0.0117	-0.0117	0.0000	0.0117	-0.0059	-0.0059	0.0059	-0.0059	-0.0117	-0.0176	-0.0059	-0.0117
0.7601	-0.0117	-0.0176	-0.0059	0.0146	-0.0029	-0.0117	0.0000	-0.0059	-0.0117	-0.0234	-0.0117	-0.0117
0.7635	-0.0117	-0.0176	-0.0059	0.0146	-0.0029	-0.0117	-0.0059	-0.0059	-0.0117	-0.0234	-0.0117	-0.0117
0.7669	-0.0117	-0.0176	-0.0059	0.0146	-0.0029	-0.0117	-0.0059	0.0000	-0.0059	-0.0176	-0.0117	-0.0117
0.7703	-0.0117	-0.0176	-0.0059	0.0146	-0.0029	-0.0117	0.0000	0.0059	0.0000	-0.0117	-0.0117	-0.0117
0.7736	-0.0117	-0.0176	-0.0059	0.0146	-0.0029	-0.0117	-0.0059	0.0117	0.0000	-0.0059	-0.0117	-0.0117
0.7770	-0.0176	-0.0176	0.0000	0.0176	-0.0088	-0.0088	0.0000	0.0117	0.0000	-0.0117	-0.0117	-0.0117
0.7804	-0.0234	-0.0176	0.0059	0.0205	-0.0146	-0.0059	0.0000	0.0059	0.0000	-0.0117	-0.0117	-0.0117
0.7838	-0.0234	-0.0234	0.0000	0.0234	-0.0117	-0.0117	0.0059	0.0000	-0.0059	-0.0176	-0.0117	-0.0117
0.7872	-0.0234	-0.0293	-0.0059	0.0264	-0.0088	-0.0176	0.0117	-0.0059	-0.0117	-0.0234	-0.0117	-0.0117
0.7905	-0.0234	-0.0352	-0.0117	0.0293	-0.0059	-0.0234	0.0117	0.0000	-0.0117	-0.0234	-0.0176	-0.0117
0.7939	-0.0234	-0.0352	-0.0117	0.0293	-0.0059	-0.0234	0.0117	0.0059	-0.0117	-0.0234	-0.0234	-0.0117
0.7973	-0.0176	-0.0352	-0.0176	0.0264	0.0000	-0.0264	0.0117	0.0117	-0.0117	-0.0176	-0.0176	-0.0117
0.8007	-0.0117	-0.0293	-0.0176	0.0205	0.0029	-0.0234	0.0117	0.0117	-0.0059	-0.0117	-0.0117	-0.0117
0.8041	-0.0117	-0.0234	-0.0117	0.0176	0.0000	-0.0176	0.0117	0.0117	0.0000	-0.0117	-0.0117	-0.0117
0.8074	-0.0117	-0.0176	-0.0059	0.0146	-0.0029	-0.0117	0.0117	0.0117	0.0000	-0.0117	-0.0117	-0.0117
0.8108	-0.0117	-0.0117	0.0000	0.0117	-0.0059	-0.0059	0.0117	0.0117	0.0000	-0.0117	-0.0117	-0.0117
0.8142	-0.0117	0.0000	0.0117	0.0059	-0.0117	0.0059	0.0117	0.0117	0.0000	-0.0117	-0.0117	-0.0117
0.8176	-0.0117	0.0117	0.0234	0.0000	-0.0176	0.0176	0.0176	0.0117	0.0000	-0.0117	-0.0117	-0.0059
0.8209	-0.0117	0.0234	0.0352	-0.0059	-0.0234	0.0293	0.0234	0.0234	0.0059	-0.0059	-0.0059	0.0000
0.8243	0.0000	0.0352	0.0352	-0.0176	-0.0176	0.0352	0.0234	0.0352	0.0117	0.0059	-0.0059	0.0000
0.8277	0.0117	0.0527	0.0410	-0.0322	-0.0146	0.0469	0.0293	0.0469	0.0234	0.0117	0.0000	0.0000
0.8311	0.0293	0.0703	0.0410	-0.0498	-0.0059	0.0557	0.0352	0.0527	0.0234	0.0117	0.0059	0.0000
0.8345	0.0469	0.0820	0.0352	-0.0645	0.0059	0.0586	0.0352	0.0527	0.0234	0.0117	0.0117	0.0117
0.8378	0.0586	0.0820	0.0234	-0.0703	0.0176	0.0527	0.0352	0.0527	0.0234	0.0117	0.0117	0.0117
0.8412	0.0586	0.0820	0.0234	-0.0703	0.0176	0.0527	0.0293	0.0469	0.0176	0.0117	0.0117	0.0117
0.8446	0.0527	0.0820	0.0293	-0.0674	0.0117	0.0557	0.0176	0.0410	0.0117	0.0059	0.0059	0.0117
0.8480	0.0469	0.0762	0.0293	-0.0615	0.0088	0.0527	0.0117	0.0352	0.0117	0.0000	0.0000	0.0117
0.8514	0.0352	0.0645	0.0293	-0.0498	0.0029	0.0469	0.0117	0.0293	0.0117	0.0000	0.0000	0.0059
0.8547	0.0352	0.0469	0.0117	-0.0410	0.0117	0.0293	0.0117	0.0234	0.0117	0.0000	-0.0059	0.0000
0.8581	0.0352	0.0352	0.0000	-0.0352	0.0176	0.0176	0.0117	0.0293	0.0117	0.0000	-0.0117	0.0000
0.8615	0.0352	0.0176	-0.0176	-0.0264	0.0264	0.0000	0.0117	0.0352	0.0117	0.0000	-0.0117	-0.0059
0.8649	0.0410	0.0000	-0.0410	-0.0205	0.0410	-0.0205	0.0117	0.0352	0.0117	0.0000	-0.0117	-0.0117
0.8682	0.0469	-0.0176	-0.0645	-0.0146	0.0557	-0.0410	0.0117	0.0293	0.0117	-0.0059	-0.0117	-0.0117
0.8716	0.0410	-0.0410	-0.0820	0.0000	0.0615	-0.0615	0.0059	0.0234	0.0000	-0.0117	-0.0117	-0.0176
0.8750	0.0234	-0.0586	-0.0820	0.0176	0.0527	-0.0703	0.0000	0.0117	-0.0117	-0.0176	-0.0234	-0.0234
0.8784	0.0000	-0.0762	-0.0762	0.0381	0.0381	-0.0762	0.0000	0.0059	-0.0234	-0.0234	-0.0352	-0.0293
0.8818	-0.0234	-0.0938	-0.0703	0.0586	0.0234	-0.0820	0.0059	0.0000	-0.0293	-0.0352	-0.0469	-0.0352
0.8851	-0.0469	-0.1113	-0.0645	0.0791	0.0088	-0.0879	0.0117	0.0000	-0.0352	-0.0469	-0.0527	-0.0352
0.8885	-0.0645	-0.1113	-0.0469	0.0879	-0.0088	-0.0791	0.0176	0.0059	-0.0352	-0.0469	-0.0469	-0.0352
0.8919	-0.0703	-0.1055	-0.0352	0.0879	-0.0176	-0.0703	0.0117	0.0000	-0.0352	-0.0469	-0.0469	-0.0352
0.8953	-0.0645	-0.0996	-0.0352	0.0820	-0.0146	-0.0674	0.0059	-0.0059	-0.0352	-0.0469	-0.0469	-0.0352
0.8986	-0.0586	-0.0996	-0.0410	0.0791	-0.0088	-0.0703	0.0000	-0.0117	-0.0352	-0.0469	-0.0469	-0.0352
0.9020	-0.0527	-0.0996	-0.0469	0.0762	-0.0029	-0.0732	0.0000	-0.0234	-0.0352	-0.0410	-0.0410	-0.0352
0.9054	-0.0527	-0.0996	-0.0469	0.0762	-0.0029	-0.0732	0.0000	-0.0293	-0.0352	-0.0469	-0.0410	-0.0352
0.9088	-0.0645	-0.1113	-0.0469	0.0879	-0.0088	-0.0791	0.0000	-0.0293	-0.0352	-0.0469	-0.0469	-0.0352
0.9122	-0.0703	-0.1113	-0.0410	0.0908	-0.0146	-0.0762	0.0059	-0.0176	-0.0352	-0.0527	-0.0469	-0.0410
0.9155	-0.0762	-0.1113	-0.0352	0.0938	-0.0205	-0.0732	0.0117	0.0000	-0.0234	-0.0469	-0.0469	-0.0469
0.9189	-0.0762	-0.1113	-0.0352	0.0938	-0.0205	-0.0732	0.0117	0.0176	-0.0117	-0.0469	-0.0469	-0.0469
0.9223	-0.0703	-0.1055	-0.0352	0.0879	-0.0176	-0.0703	0.0176	0.0234	-0.0059	-0.0410	-0.0469	-0.0410
0.9257	-0.0645	-0.1055	-0.0410	0.0850	-0.0117	-0.0732	0.0234	0.0293	0.0000	-0.0352	-0.0410	-0.0410
0.9291	-0.0586	-0.1113	-0.0527	0.0850	-0.0029	-0.0820	0.0293	0.0293	0.0000	-0.0352	-0.0410	-0.0469
0.9324	-0.0645	-0.1230	-0.0586	0.0938	-0.0029	-0.0908	0.0352	0.0293	0.0000	-0.0293	-0.0469	-0.0527
0.9358	-0.0703	-0.1348	-0.0645	0.1025	-0.0029	-0.0996	0.0469	0.0410	0.0117	-0.0234	-0.0527	-0.0527
0.9392	-0.0762	-0.1289	-0.0527	0.1025	-0.0117	-0.0908	0.0586	0.0703	0.0352	-0.0117	-0.0352	-0.0469
0.9426	-0.0527	-0.0879	-0.0352	0.0703	-0.0088	-0.0615	0.0645	0.1230	0.0820	0.0293	0.0059	-0.0234
0.9459	0.0234	0.0176	-0.0059	-0.0205	0.0146	0.0059	0.0586	0.1934	0.1523	0.1055	0.0820	0.0352
0.9493	0.1465	0.1816	0.0352	-0.1641	0.0557	0.1084	0.0293	0.2520	0.2402	0.2109	0.1934	0.1230
0.9527	0.3105	0.4043	0.0938	-0.3574	0.1084	0.2490	-0.0234	0.2813	0.3281	0.3457	0.3398	0.2461
0.9561	0.4980	0.6621	0.1641	-0.5801	0.1670	0.4131	-0.0938	0.2637	0.3984	0.4863	0.4980	0.3691
0.9595	0.6738	0.9141	0.2402	-0.7939	0.2168	0.5771	-0.1758	0.1758	0.4219	0.6094	0.6445	0.4863
0.9628	0.7910	1.1191	0.3281	-0.9551	0.2314	0.7236	-0.2520	0.0293	0.3926	0.6855	0.7324	0.5742
0.9662	0.8145	1.2188	0.4043	-1.0166	0.2051	0.8115	-0.3164	-0.1699	0.3047	0.6973	0.7441	0.6035
0.9696	0.7266	1.1895	0.4629	-0.9580	0.1318	0.8262	-0.3457	-0.3809	0.1641	0.6211	0.6738	0.5684
0.9730	0.5391	1.0313	0.4922	-0.7852	0.0234	0.7617	-0.3398	-0.5684	0.0000	0.4746	0.5273	0.4688
0.9764	0.2871	0.7676	0.4805	-0.5273	-0.0967	0.6240	-0.3105	-0.6973	-0.1699	0.2871	0.3223	0.3223
0.9797	0.0176	0.4453	0.4277	-0.2314	-0.2051	0.4365	-0.2578	-0.7617	-0.3164	0.0820	0.1055	0.1582
0.9831	-0.2109	0.1230	0.3340	0.0439	-0.2725	0.2285	-0.2051	-0.7559	-0.4160	-0.1113	-0.0996	0.0000
0.9865	-0.3691	-0.1582	0.2109	0.2637	-0.2900	0.0264	-0.1582	-0.6855	-0.4570	-0.2578	-0.2520	-0.1230
0.9899	-0.4395	-0.3574	0.0820	0.3984	-0.2607	-0.1377	-0.1230	-0.5801	-0.4336	-0.3457	-0.3398	-0.1992
0.9932	-0.4277	-0.4688	-0.0410	0.4482	-0.1934	-0.2549	-0.1055	-0.4570	-0.3691	-0.3691	-0.3574	-0.2402
0.9966	-0.3516	-0.4980	-0.1465	0.4248	-0.1025	-0.3223	-0.0879	-0.3281	-0.2871	-0.3398	-0.3340	-0.2402
1.0000	-0.2520	-0.4688	-0.2168	0.3604	-0.0176	-0.3428	-0.0762	-0.2168	-0.1992	-0.2871	-0.2813	-0.2168
1.0034	-0.1699	-0.4160	-0.2461	0.2930	0.0381	-0.3311	-0.0527	-0.1230	-0.1172	-0.2285	-0.2285	-0.1875
1.0068	-0.1172	-0.3633	-0.2461	0.2402	0.0645	-0.3047	-0.0176	-0.0469	-0.0586	-0.1816	-0.1816	-0.1582
1.0101	-0.0938	-0.3164	-0.2227	0.2051	0.0645	-0.2695	0.0176	0.0176	-0.0234	-0.1465	-0.1523	-0.1406
1.0135	-0.0996	-0.2813	-0.1816	0.1904	0.0410	-0.2314	0.0527	0.0645	0.0000	-0.1348	-0.1465	-0.1348
1.0169	-0.1230	-0.2637	-0.1406	0.1934	0.0088	-0.2021	0.0820	0.0996	0.0117	-0.1289	-0.1465	-0.1289
1.0203	-0.1406	-0.2578	-0.1172	0.1992	-0.0117	-0.1875	0.0996	0.1230	0.0117	-0.1230	-0.1406	-0.1230
1.0236	-0.1465	-0.2461	-0.0996	0.1963	-0.0234	-0.1729	0.1055	0.1348	0.0117	-0.1172	-0.1348	-0.1172
1.0270	-0.1348	-0.2344	-0.0996	0.1846	-0.0176	-0.1670	0.1055	0.1406	0.0176	-0.1113	-0.1230	-0.1113
1.0304	-0.1172	-0.2227	-0.1055	0.1699	-0.0059	-0.1641	0.0938	0.1348	0.0234	-0.0996	-0.1113	-0.0996
1.0338	-0.1055	-0.2109	-0.1055	0.1582	0.0000	-0.1582	0.0879	0.1289	0.0234	-0.0879	-0.0996	-0.0879
1.0372	-0.0938	-0.1992	-0.1055	0.1465	0.0059	-0.1523	0.0879	0.1230	0.0234	-0.0820	-0.0879	-0.0762
1.0405	-0.0938	-0.1875	-0.0938	0.1406	0.0000	-0.1406	0.0879	0.1230	0.0234	-0.0762	-0.0879	-0.0762
1.0439	-0.0996	-0.1758	-0.0762	0.1377	-0.0117	-0.1260	0.0879	0.1230	0.0234	-0.0762	-0.0879	-0.0762
1.0473	-0.1113	-0.1758	-0.0645	0.1436	-0.0234	-0.1201	0.0879	0.1230	0.0234	-0.0762	-0.0879	-0.0762
1.0507	-0.1113	-0.1758	-0.0645	0.1436	-0.0234	-0.1201	0.0879	0.1230	0.0176	-0.0762	-0.0820	-0.0762
1.0541	-0.1113	-0.1641	-0.0527	0.1377	-0.0293	-0.1084	0.0879	0.1230	0.0234	-0.0703	-0.0762	-0.0703
1.0574	-0.0996	-0.1523	-0.0527	0.1260	-0.0234	-0.1025	0.0820	0.1230	0.0234	-0.0645	-0.0703	-0.0645
1.0608	-0.0879	-0.1465	-0.0586	0.1172	-0.0146	-0.1025	0.0762	0.1172	0.0234	-0.0586	-0.0645	-0.0586
1.0642	-0.0762	-0.1406	-0.0645	0.1084	-0.0059	-0.1025	0.0703	0.1113	0.0234	-0.0527	-0.0586	-0.0527
1.0676	-0.0645	-0.1289	-0.0645	0.0967	0.0000	-0.0967	0.0645	0.1055	0.0234	-0.0527	-0.0527	-0.0469
1.0709	-0.0645	-0.1289	-0.0645	0.0967	0.0000	-0.0967	0.0645	0.0996	0.0176	-0.0527	-0.0527	-0.0410
1.0743	-0.0645	-0.1289	-0.0645	0.0967	0.0000	-0.0967	0.0703	0.0996	0.0117	-0.0527	-0.0527	-0.0410
1.0777	-0.0645	-0.1289	-0.0645	0.0967	0.0000	-0.0967	0.0762	0.0996	0.0117	-0.0527	-0.0527	-0.0410
1.0811	-0.0645	-0.1172	-0.0527	0.0908	-0.0059	-0.0850	0.0762	0.0996	0.0117	-0.0527	-0.0527	-0.0410
1.0845	-0.0645	-0.1113	-0.0469	0.0879	-0.0088	-0.0791	0.0703	0.0996	0.0117	-0.0527	-0.0469	-0.0410
1.0878	-0.0586	-0.1055	-0.0469	0.0820	-0.0059	-0.0762	0.0703	0.0996	0.0117	-0.0469	-0.0410	-0.0410
1.0912	-0.0527	-0.0938	-0.0410	0.0732	-0.0059	-0.0674	0.0645	0.0938	0.0176	-0.0352	-0.0352	-0.0410
1.0946	-0.0469	-0.0820	-0.0352	0.0645	-0.0059	-0.0586	0.0586	0.0879	0.0234	-0.0293	-0.0293	-0.0352
1.0980	-0.0410	-0.0820	-0.0410	0.0615	0.0000	-0.0615	0.0527	0.0879	0.0234	-0.0293	-0.0293	-0.0293
1.1014	-0.0410	-0.0820	-0.0410	0.0615	0.0000	-0.0615	0.0527	0.0879	0.0234	-0.0234	-0.0293	-0.0293
1.1047	-0.0410	-0.0762	-0.0352	0.0586	-0.0029	-0.0557	0.0527	0.0879	0.0234	-0.0176	-0.0293	-0.0293
1.1081	-0.0410	-0.0703	-0.0293	0.0557	-0.0059	-0.0498	0.0527	0.0938	0.0234	-0.0176	-0.0293	-0.0293
1.1115	-0.0352	-0.0703	-0.0352	0.0527	0.0000	-0.0527	0.0527	0.0996	0.0234	-0.0176	-0.0234	-0.0234
1.1149	-0.0293	-0.0586	-0.0293	0.0439	0.0000	-0.0439	0.0527	0.1055	0.0293	-0.0176	-0.0176	-0.0176
1.1182	-0.0176	-0.0469	-0.0293	0.0322	0.0059	-0.0381	0.0527	0.0996	0.0352	-0.0117	-0.0117	-0.0176
1.1216	-0.0117	-0.0352	-0.0234	0.0234	0.0059	-0.0293	0.0527	0.0996	0.0410	-0.0117	-0.0059	-0.0117
1.1250	-0.0059	-0.0293	-0.0234	0.0176	0.0088	-0.0264	0.0527	0.1055	0.0469	0.0000	0.0000	-0.0059
1.1284	0.0059	-0.0234	-0.0293	0.0088	0.0176	-0.0264	0.0469	0.1113	0.0469	0.0059	0.0059	-0.0059
1.1318	0.0117	-0.0117	-0.0234	0.0000	0.0176	-0.0176	0.0410	0.1113	0.0527	0.0117	0.0059	-0.0059
1.1351	0.0234	-0.0059	-0.0293	-0.0088	0.0264	-0.0176	0.0410	0.1113	0.0586	0.0176	0.0117	0.0000
1.1385	0.0234	0.0059	-0.0176	-0.0146	0.0205	-0.0059	0.0352	0.1172	0.0586	0.0176	0.0176	0.0059
1.1419	0.0293	0.0059	-0.0234	-0.0176	0.0264	-0.0088	0.0293	0.1230	0.0645	0.0234	0.0176	0.0059
1.1453	0.0293	0.0117	-0.0176	-0.0205	0.0234	-0.0029	0.0293	0.1230	0.0703	0.0234	0.0234	0.0059
1.1486	0.0352	0.0234	-0.0117	-0.0293	0.0234	0.0059	0.0293	0.1289	0.0703	0.0293	0.0293	0.0059
1.1520	0.0410	0.0352	-0.0059	-0.0381	0.0234	0.0146	0.0293	0.1348	0.0703	0.0352	0.0293	0.0117
1.1554	0.0527	0.0469	-0.0059	-0.0498	0.0293	0.0205	0.0293	0.1406	0.0703	0.0410	0.0352	0.0176
1.1588	0.0645	0.0586	-0.0059	-0.0615	0.0352	0.0264	0.0293	0.1406	0.0762	0.0469	0.0352	0.0234
1.1622	0.0762	0.0703	-0.0059	-0.0732	0.0410	0.0322	0.0293	0.1348	0.0820	0.0527	0.0469	0.0293
1.1655	0.0879	0.0879	0.0000	-0.0879	0.0439	0.0439	0.0234	0.1348	0.0820	0.0527	0.0527	0.0352
1.1689	0.0938	0.1055	0.0117	-0.0996	0.0410	0.0586	0.0176	0.1406	0.0820	0.0527	0.0586	0.0410
1.1723	0.0996	0.1172	0.0176	-0.1084	0.0410	0.0674	0.0176	0.1406	0.0820	0.0645	0.0645	0.0469
1.1757	0.1055	0.1289	0.0234	-0.1172	0.0410	0.0762	0.0117	0.1348	0.0820	0.0703	0.0703	0.0527
1.1791	0.1113	0.1406	0.0293	-0.1260	0.0410	0.0850	0.0059	0.1289	0.0820	0.0762	0.0762	0.0586
1.1824	0.1172	0.1465	0.0293	-0.1318	0.0439	0.0879	0.0059	0.1230	0.0820	0.0762	0.0762	0.0645
1.1858	0.1230	0.1523	0.0293	-0.1377	0.0469	0.0908	0.0059	0.1289	0.0762	0.0762	0.0762	0.0645
1.1892	0.1230	0.1641	0.0410	-0.1436	0.0410	0.1025	0.0000	0.1230	0.0703	0.0762	0.0762	0.0645
1.1926	0.1230	0.1699	0.0469	-0.1465	0.0381	0.1084	-0.0059	0.1172	0.0703	0.0762	0.0762	0.0645
1.1959	0.1230	0.1758	0.0527	-0.1494	0.0352	0.1143	-0.0059	0.1113	0.0645	0.0762	0.0762	0.0645
1.1993	0.1230	0.1758	0.0527	-0.1494	0.0352	0.1143	-0.0059	0.0996	0.0586	0.0762	0.0762	0.0645
1.2027	0.1230	0.1758	0.0527	-0.1494	0.0352	0.1143	-0.0117	0.0938	0.0527	0.0762	0.0762	0.0645
1.2061	0.1230	0.1816	0.0586	-0.1523	0.0322	0.1201	-0.0176	0.0879	0.0410	0.0762	0.0762	0.0645
1.2095	0.1172	0.1816	0.0645	-0.1494	0.0264	0.1230	-0.0176	0.0820	0.0410	0.0645	0.0703	0.0645
1.2128	0.1113	0.1758	0.0645	-0.1436	0.0234	0.1201	-0.0176	0.0645	0.0352	0.0645	0.0645	0.0645
1.2162	0.1055	0.1758	0.0703	-0.1406	0.0176	0.1230	-0.0176	0.0586	0.0352	0.0645	0.0645	0.0645
1.2196	0.0996	0.1699	0.0703	-0.1348	0.0146	0.1201	-0.0176	0.0527	0.0293	0.0645	0.0645	0.0645
1.2230	0.0879	0.1641	0.0762	-0.1260	0.0059	0.1201	-0.0176	0.0469	0.0176	0.0586	0.0586	0.0586
1.2264	0.0820	0.1523	0.0703	-0.1172	0.0059	0.1113	-0.0176	0.0352	0.0176	0.0469	0.0469	0.0527
1.2297	0.0762	0.1348	0.0586	-0.1055	0.0088	0.0967	-0.0176	0.0176	0.0117	0.0469	0.0469	0.0410
1.2331	0.0586	0.1172	0.0586	-0.0879	0.0000	0.0879	-0.0176	0.0117	0.0000	0.0410	0.0410	0.0352
1.2365	0.0410	0.0938	0.0527	-0.0674	-0.0059	0.0732	-0.0176	-0.0059	-0.0117	0.0293	0.0293	0.0293
1.2399	0.0293	0.0703	0.0410	-0.0498	-0.0059	0.0557	-0.0176	-0.0234	-0.0176	0.0176	0.0176	0.0176
1.2432	0.0117	0.0469	0.0352	-0.0293	-0.0117	0.0410	-0.0176	-0.0410	-0.0234	0.0059	0.0059	0.0117
1.2466	-0.0059	0.0234	0.0293	-0.0088	-0.0176	0.0264	-0.0117	-0.0469	-0.0352	0.0059	-0.0059	0.0059
1.2500	-0.0176	0.0000	0.0176	0.0088	-0.0176	0.0088	-0.0059	-0.0527	-0.0469	-0.0059	-0.0176	-0.0059
1.2534	-0.0293	-0.0234	0.0059	0.0264	-0.0176	-0.0088	-0.0059	-0.0645	-0.0527	-0.0176	-0.0234	-0.0176
1.2568	-0.0410	-0.0469	-0.0059	0.0439	-0.0176	-0.0264	-0.0059	-0.0703	-0.0586	-0.0234	-0.0293	-0.0234
1.2601	-0.0527	-0.0703	-0.0176	0.0615	-0.0176	-0.0439	-0.0059	-0.0762	-0.0586	-0.0293	-0.0352	-0.0293
1.2635	-0.0586	-0.0820	-0.0234	0.0703	-0.0176	-0.0527	0.0059	-0.0820	-0.0645	-0.0410	-0.0410	-0.0352
1.2669	-0.0645	-0.0938	-0.0293	0.0791	-0.0176	-0.0615	0.0059	-0.0879	-0.0703	-0.0527	-0.0469	-0.0410
1.2703	-0.0703	-0.1055	-0.0352	0.0879	-0.0176	-0.0703	0.0059	-0.0938	-0.0703	-0.0527	-0.0527	-0.0469
1.2736	-0.0762	-0.1172	-0.0410	0.0967	-0.0176	-0.0791	0.0000	-0.0996	-0.0703	-0.0527	-0.0586	-0.0527
1.2770	-0.0820	-0.1172	-0.0352	0.0996	-0.0234	-0.0762	-0.0059	-0.0996	-0.0703	-0.0527	-0.0645	-0.0527
1.2804	-0.0879	-0.1230	-0.0352	0.1055	-0.0264	-0.0791	-0.0059	-0.0938	-0.0703	-0.0586	-0.0645	-0.0527
1.2838	-0.0879	-0.1289	-0.0410	0.1084	-0.0234	-0.0850	-0.0059	-0.0879	-0.0703	-0.0586	-0.0645	-0.0527
1.2872	-0.0879	-0.1289	-0.0410	0.1084	-0.0234	-0.0850	-0.0059	-0.0879	-0.0586	-0.0586	-0.0645	-0.0527
1.2905	-0.0879	-0.1289	-0.0410	0.1084	-0.0234	-0.0850	-0.0059	-0.0879	-0.0586	-0.0527	-0.0645	-0.0527
1.2939	-0.0879	-0.1289	-0.0410	0.1084	-0.0234	-0.0850	-0.0059	-0.0820	-0.0586	-0.0527	-0.0586	-0.0527
1.2973	-0.0820	-0.1289	-0.0469	0.1055	-0.0176	-0.0879	0.0000	-0.0762	-0.0586	-0.0527	-0.0527	-0.0469
1.3007	-0.0762	-0.1230	-0.0469	0.0996	-0.0146	-0.0850	0.0059	-0.0703	-0.0527	-0.0527	-0.0527	-0.0410
1.3041	-0.0762	-0.1172	-0.0410	0.0967	-0.0176	-0.0791	0.0059	-0.0762	-0.0469	-0.0527	-0.0527	-0.0410
1.3074	-0.0762	-0.1172	-0.0410	0.0967	-0.0176	-0.0791	0.0059	-0.0762	-0.0469	-0.0527	-0.0527	-0.0410
1.3108	-0.0703	-0.1172	-0.0469	0.0938	-0.0117	-0.0820	0.0059	-0.0703	-0.0469	-0.0527	-0.0527	-0.0410
1.3142	-0.0645	-0.1113	-0.0469	0.0879	-0.0088	-0.0791	0.0059	-0.0645	-0.0469	-0.0527	-0.0527	-0.0410
1.3176	-0.0645	-0.1055	-0.0410	0.0850	-0.0117	-0.0732	0.0000	-0.0645	-0.0469	-0.0469	-0.0527	-0.0410
1.3209	-0.0645	-0.1055	-0.0410	0.0850	-0.0117	-0.0732	-0.0059	-0.0586	-0.0410	-0.0410	-0.0469	-0.0410
1.3243	-0.0645	-0.1055	-0.0410	0.0850	-0.0117	-0.0732	-0.0059	-0.0527	-0.0352	-0.0410	-0.0410	-0.0410
1.3277	-0.0645	-0.0996	-0.0352	0.0820	-0.0146	-0.0674	-0.0059	-0.0527	-0.0352	-0.0410	-0.0410	-0.0410
1.3311	-0.0645	-0.0938	-0.0293	0.0791	-0.0176	-0.0615	0.0000	-0.0469	-0.0352	-0.0410	-0.0410	-0.0410
1.3345	-0.0645	-0.0879	-0.0234	0.0762	-0.0205	-0.0557	0.0059	-0.0410	-0.0352	-0.0352	-0.0410	-0.0352
1.3378	-0.0586	-0.0762	-0.0176	0.0674	-0.0205	-0.0469	0.0059	-0.0410	-0.0293	-0.0293	-0.0410	-0.0293
1.3412	-0.0527	-0.0703	-0.0176	0.0615	-0.0176	-0.0439	0.0059	-0.0410	-0.0234	-0.0293	-0.0352	-0.0293
1.3446	-0.0527	-0.0703	-0.0176	0.0615	-0.0176	-0.0439	0.0059	-0.0352	-0.0234	-0.0293	-0.0293	-0.0293
1.3480	-0.0469	-0.0645	-0.0176	0.0557	-0.0146	-0.0410	0.0059	-0.0293	-0.0234	-0.0293	-0.0293	-0.0293
1.3514	-0.0410	-0.0527	-0.0117	0.0469	-0.0146	-0.0322	0.0059	-0.0293	-0.0234	-0.0293	-0.0293	-0.0293
1.3547	-0.0410	-0.0469	-0.0059	0.0439	-0.0176	-0.0264	0.0000	-0.0293	-0.0234	-0.0293	-0.0234	-0.0293
1.3581	-0.0410	-0.0469	-0.0059	0.0439	-0.0176	-0.0264	-0.0059	-0.0234	-0.0234	-0.0293	-0.0176	-0.0234
1.3615	-0.0410	-0.0469	-0.0059	0.0439	-0.0176	-0.0264	-0.0059	-0.0176	-0.0234	-0.0234	-0.0176	-0.0176
1.3649	-0.0410	-0.0410	0.0000	0.0410	-0.0205	-0.0205	-0.0059	-0.0176	-0.0234	-0.0176	-0.0176	-0.0176
1.3682	-0.0352	-0.0293	0.0059	0.0322	-0.0205	-0.0117	0.0000	-0.0176	-0.0234	-0.0176	-0.0176	-0.0176
1.3716	-0.0293	-0.0234	0.0059	0.0264	-0.0176	-0.0088	0.0059	-0.0117	-0.0117	-0.0176	-0.0176	-0.0176
1.3750	-0.0293	-0.0234	0.0059	0.0264	-0.0176	-0.0088	0.0059	-0.0059	-0.0117	-0.0176	-0.0176	-0.0176
1.3784	-0.0293	-0.0176	0.0117	0.0234	-0.0205	-0.0029	0.0059	-0.0059	-0.0117	-0.0176	-0.0176	-0.0176
1.3818	-0.0234	-0.0117	0.0117	0.0176	-0.0176	0.0000	0.0059	-0.0059	-0.0117	-0.0176	-0.0176	-0.0176
1.3851	-0.0176	-0.0117	0.0059	0.0146	-0.0117	-0.0029	0.0059	-0.0059	-0.0117	-0.0176	-0.0176	-0.0176
1.3885	-0.0176	-0.0117	0.0059	0.0146	-0.0117	-0.0029	0.0059	-0.0059	-0.0117	-0.0176	-0.0176	-0.0176
1.3919	-0.0176	-0.0117	0.0059	0.0146	-0.0117	-0.0029	0.0059	-0.0059	-0.0117	-0.0176	-0.0117	-0.0176
1.3953	-0.0176	-0.0117	0.0059	0.0146	-0.0117	-0.0029	0.0059	-0.0059	-0.0117	-0.0176	-0.0059	-0.0117
1.3986	-0.0176	-0.0059	0.0117	0.0117	-0.0146	0.0029	0.0059	-0.0059	-0.0117	-0.0117	-0.0059	-0.0059
1.4020	-0.0176	0.0000	0.0176	0.0088	-0.0176	0.0088	0.0059	-0.0059	-0.0117	-0.0059	-0.0059	-0.0059
1.4054	-0.0176	0.0000	0.0176	0.0088	-0.0176	0.0088	0.0059	-0.0059	0.0000	-0.0059	-0.0059	-0.0059
1.4088	-0.0176	0.0000	0.0176	0.0088	-0.0176	0.0088	0.0059	-0.0059	0.0000	-0.0059	-0.0059	-0.0059
1.4122	-0.0176	0.0000	0.0176	0.0088	-0.0176	0.0088	0.0059	0.0000	0.0000	-0.0059	-0.0059	-0.0059
1.4155	-0.0176	0.0000	0.0176	0.0088	-0.0176	0.0088	0.0059	0.0059	0.0059	-0.0059	-0.0059	-0.0059
1.4189	-0.0176	0.0000	0.0176	0.0088	-0.0176	0.0088	0.0059	0.0059	0.0117	-0.0059	-0.0059	-0.0059
1.4223	-0.0117	-0.0059	0.0059	0.0088	-0.0088	0.0000	0.0059	0.0059	0.0117	-0.0059	-0.0059	-0.0059
1.4257	-0.0059	-0.0117	-0.0059	0.0088	0.0000	-0.0088	0.0059	0.0059	0.0000	-0.0059	-0.0059	0.0000
1.4291	-0.0059	-0.0117	-0.0059	0.0088	0.0000	-0.0088	0.0059	0.0059	0.0000	-0.0059	-0.0059	0.0059
1.4324	-0.0059	-0.0117	-0.0059	0.0088	0.0000	-0.0088	0.0059	0.0059	0.0000	-0.0059	-0.0059	0.0117
1.4358	-0.0059	-0.0059	0.0000	0.0059	-0.0029	-0.0029	0.0059	0.0059	0.0000	-0.0117	-0.0059	0.0059
1.4392	-0.0059	0.0000	0.0059	0.0029	-0.0059	0.0029	0.0059	0.0059	0.0000	-0.0117	-0.0059	0.0059
1.4426	-0.0059	0.0000	0.0059	0.0029	-0.0059	0.0029	0.0059	0.0059	0.0000	-0.0059	-0.0059	0.0059
1.4459	-0.0059	0.0000	0.0059	0.0029	-0.0059	0.0029	0.0059	0.0059	0.0117	-0.0059	-0.0059	0.0059
1.4493	-0.0059	0.0000	0.0059	0.0029	-0.0059	0.0029	0.0059	0.0059	0.0117	-0.0059	-0.0059	0.0059
1.4527	-0.0059	-0.0059	0.0000	0.0059	-0.0029	-0.0029	0.0059	0.0059	0.0117	-0.0059	-0.0059	0.0059
1.4561	-0.0059	-0.0117	-0.0059	0.0088	0.0000	-0.0088	0.0059	0.0059	0.0117	-0.0059	-0.0059	0.0059
1.4595	-0.0059	-0.0176	-0.0117	0.0117	0.0029	-0.0146	0.0059	0.0059	0.0117	-0.0059	-0.0059	0.0059
1.4628	-0.0059	-0.0234	-0.0176	0.0146	0.0059	-0.0205	0.0059	0.0059	0.0117	-0.0059	-0.0059	0.0000
1.4662	-0.0059	-0.0234	-0.0176	0.0146	0.0059	-0.0205	0.0059	0.0059	0.0000	-0.0059	-0.0059	-0.0059
1.4696	-0.0059	-0.0234	-0.0176	0.0146	0.0059	-0.0205	0.0059	0.0059	0.0000	-0.0059	-0.0059	-0.0059
1.4730	-0.0059	-0.0234	-0.0176	0.0146	0.0059	-0.0205	0.0059	0.0059	0.0000	-0.0059	-0.0059	-0.0059
1.4764	-0.0059	-0.0176	-0.0117	0.0117	0.0029	-0.0146	0.0059	0.0059	0.0000	-0.0059	-0.0059	-0.0059
1.4797	-0.0059	-0.0117	-0.0059	0.0088	0.0000	-0.0088	0.0059	0.0059	0.0000	-0.0059	-0.0059	-0.0059
1.4831	-0.0059	-0.0059	0.0000	0.0059	-0.0029	-0.0029	0.0059	0.0059	0.0000	-0.0059	-0.0059	-0.0059
1.4865	0.0000	-0.0117	-0.0117	0.0059	0.0059	-0.0117	0.0059	0.0059	0.0000	-0.0059	-0.0059	-0.0059
1.4899	0.0059	-0.0117	-0.0176	0.0029	0.0117	-0.0146	0.0059	0.0059	0.0000	-0.0059	-0.0059	-0.0059
1.4932	0.0059	-0.0117	-0.0176	0.0029	0.0117	-0.0146	0.0059	0.0059	0.0000	-0.0059	-0.0059	-0.0059
1.4966	0.0059	-0.0059	-0.0117	0.0000	0.0088	-0.0088	0.0000	0.0059	0.0000	-0.0059	-0.0059	-0.0059
1.5000	0.0059	-0.0059	-0.0117	0.0000	0.0088	-0.0088	-0.0059	0.0059	0.0000	-0.0059	-0.0059	-0.0059
1.5034	0.0000	-0.0059	-0.0059	0.0029	0.0029	-0.0059	-0.0059	0.0059	0.0000	-0.0059	-0.0059	-0.0059
1.5068	-0.0059	-0.0059	0.0000	0.0059	-0.0029	-0.0029	0.0000	0.0059	0.0000	-0.0059	-0.0059	-0.0059
1.5101	-0.0059	-0.0117	-0.0059	0.0088	0.0000	-0.0088	0.0059	0.0059	0.0000	-0.0059	-0.0059	-0.0059
1.5135	-0.0059	-0.0176	-0.0117	0.0117	0.0029	-0.0146	0.0059	0.0059	0.0000	-0.0059	0.0000	-0.0059
1.5169	-0.0059	-0.0176	-0.0117	0.0117	0.0029	-0.0146	0.0059	0.0059	0.0000	-0.0059	0.0000	-0.0059
1.5203	-0.0059	-0.0176	-0.0117	0.0117	0.0029	-0.0146	0.0059	0.0059	0.0000	-0.0059	-0.0059	-0.0059
1.5236	-0.0059	-0.0176	-0.0117	0.0117	0.0029	-0.0146	0.0059	0.0059	0.0000	-0.0059	-0.0059	-0.0059
1.5270	-0.0059	-0.0176	-0.0117	0.0117	0.0029	-0.0146	0.0059	0.0059	0.0000	-0.0059	-0.0059	-0.0059
1.5304	-0.0059	-0.0117	-0.0059	0.0088	0.0000	-0.0088	0.0059	0.0059	0.0000	-0.0059	0.0000	0.0000
1.5338	0.0000	-0.0059	-0.0059	0.0029	0.0029	-0.0059	0.0059	0.0059	0.0000	-0.0059	0.0000	0.0000
1.5372	0.0059	-0.0059	-0.0117	0.0000	0.0088	-0.0088	0.0059	0.0059	0.0000	-0.0059	0.0000	0.0000
1.5405	0.0117	-0.0059	-0.0176	-0.0029	0.0146	-0.0117	0.0059	0.0059	0.0000	-0.0059	-0.0059	-0.0059
1.5439	0.0059	-0.0059	-0.0117	0.0000	0.0088	-0.0088	0.0059	0.0059	0.0000	-0.0059	-0.0059	-0.0059
1.5473	0.0000	-0.0059	-0.0059	0.0029	0.0029	-0.0059	0.0059	0.0059	0.0000	-0.0059	-0.0059	-0.0059
1.5507	-0.0059	-0.0059	0.0000	0.0059	-0.0029	-0.0029	0.0059	0.0059	0.0000	-0.0059	0.0000	0.0000
1.5541	-0.0059	-0.0059	0.0000	0.0059	-0.0029	-0.0029	0.0059	0.0059	0.0000	-0.0059	0.0000	0.0000
1.5574	-0.0059	-0.0117	-0.0059	0.0088	0.0000	-0.0088	0.0059	0.0059	0.0000	-0.0059	0.0000	0.0000
1.5608	-0.0059	-0.0176	-0.0117	0.0117	0.0029	-0.0146	0.0059	0.0059	0.0000	-0.0059	0.0000	-0.0059
1.5642	-0.0059	-0.0176	-0.0117	0.0117	0.0029	-0.0146	0.0059	0.0059	0.0000	-0.0059	-0.0059	-0.0059
1.5676	-0.0059	-0.0176	-0.0117	0.0117	0.0029	-0.0146	0.0059	0.0059	0.0000	-0.0059	0.0000	0.0000
1.5709	-0.0059	-0.0176	-0.0117	0.0117	0.0029	-0.0146	0.0059	0.0059	0.0000	-0.0059	0.0000	0.0000
1.5743	-0.0059	-0.0176	-0.0117	0.0117	0.0029	-0.0146	0.0000	0.0059	0.0000	0.0000	0.0000	0.0000
1.5777	-0.0059	-0.0176	-0.0117	0.0117	0.0029	-0.0146	0.0059	0.0059	0.0000	-0.0059	0.0000	0.0000
1.5811	-0.0059	-0.0117	-0.0059	0.0088	0.0000	-0.0088	0.0059	0.0059	0.0000	-0.0059	0.0000	0.0000
1.5845	-0.0059	-0.0059	0.0000	0.0059	-0.0029	-0.0029	0.0059	0.0059	0.0000	-0.0059	0.0000	0.0000
1.5878	-0.0059	-0.0059	0.0000	0.0059	-0.0029	-0.0029	0.0059	0.0059	0.0000	-0.0059	0.0000	0.0000
1.5912	-0.0059	-0.0059	0.0000	0.0059	-0.0029	-0.0029	0.0000	0.0059	0.0000	0.0000	0.0000	0.0000
1.5946	-0.0059	-0.0059	0.0000	0.0059	-0.0029	-0.0029	0.0000	0.0059	0.0000	0.0000	0.0000	0.0000
1.5980	-0.0059	-0.0059	0.0000	0.0059	-0.0029	-0.0029	0.0059	0.0059	0.0000	0.0000	0.0000	0.0000
1.6014	-0.0059	-0.0059	0.0000	0.0059	-0.0029	-0.0029	0.0059	0.0059	0.0117	-0.0059	0.0000	0.0000
1.6047	-0.0059	-0.0059	0.0000	0.0059	-0.0029	-0.0029	0.0059	0.0059	0.0117	-0.0059	0.0000	0.0000
1.6081	-0.0059	-0.0059	0.0000	0.0059	-0.0029	-0.0029	0.0000	0.0059	0.0117	-0.0059	0.0000	0.0000
1.6115	-0.0059	-0.0117	-0.0059	0.0088	0.0000	-0.0088	0.0000	0.0059	0.0000	0.0000	0.0000	0.0000
1.6149	-0.0059	-0.0117	-0.0059	0.0088	0.0000	-0.0088	0.0000	0.0059	0.0000	0.0000	0.0000	0.0000
1.6182	-0.0059	-0.0117	-0.0059	0.0088	0.0000	-0.0088	0.0000	0.0059	0.0000	0.0000	0.0000	0.0000
1.6216	0.0000	-0.0059	-0.0059	0.0029	0.0029	-0.0059	0.0059	0.0059	0.0000	-0.0059	0.0000	0.0000
1.6250	0.0000	-0.0059	-0.0059	0.0029	0.0029	-0.0059	0.0059	0.0059	0.0000	-0.0059	0.0000	0.0000
1.6284	-0.0059	-0.0059	0.0000	0.0059	-0.0029	-0.0029	0.0000	0.0059	0.0000	0.0000	0.0000	0.0000
1.6318	-0.0059	-0.0059	0.0000	0.0059	-0.0029	-0.0029	0.0000	0.0059	0.0000	0.0000	0.0000	0.0000
1.6351	0.0000	-0.0059	-0.0059	0.0029	0.0029	-0.0059	0.0000	0.0000	0.0000	0.0000	0.0000	0.0000
1.6385	0.0000	-0.0059	-0.0059	0.0029	0.0029	-0.0059	0.0000	0.0000	0.0000	0.0000	0.0000	0.0000
1.6419	-0.0059	-0.0117	-0.0059	0.0088	0.0000	-0.0088	0.0000	0.0000	0.0000	0.0000	0.0000	0.0000
1.6453	-0.0117	-0.0176	-0.0059	0.0146	-0.0029	-0.0117	0.0000	0.0000	0.0000	0.0000	0.0000	0.0000
1.6486	-0.0176	-0.0176	0.0000	0.0176	-0.0088	-0.0088	0.0000	0.0000	-0.0059	-0.0059	-0.0059	-0.0059
1.6520	-0.0176	-0.0176	0.0000	0.0176	-0.0088	-0.0088	0.0000	0.0000	-0.0059	-0.0117	-0.0117	-0.0117
1.6554	-0.0117	-0.0234	-0.0117	0.0176	0.0000	-0.0176	0.0000	0.0000	-0.0117	-0.0117	-0.0117	-0.0117
1.6588	-0.0117	-0.0293	-0.0176	0.0205	0.0029	-0.0234	0.0000	0.0000	-0.0117	-0.0117	-0.0117	-0.0117
1.6622	-0.0117	-0.0293	-0.0176	0.0205	0.0029	-0.0234	0.0000	0.0000	-0.0117	-0.0117	-0.0117	-0.0117
1.6655	-0.0117	-0.0293	-0.0176	0.0205	0.0029	-0.0234	0.0000	0.0000	-0.0117	-0.0117	-0.0117	-0.0117
1.6689	-0.0117	-0.0234	-0.0117	0.0176	0.0000	-0.0176	0.0000	0.0000	-0.0117	-0.0117	-0.0117	-0.0117
1.6723	-0.0117	-0.0176	-0.0059	0.0146	-0.0029	-0.0117	0.0000	0.0000	-0.0117	-0.0117	-0.0117	-0.0117
1.6757	-0.0117	-0.0176	-0.0059	0.0146	-0.0029	-0.0117	0.0000	0.0000	-0.0117	-0.0117	-0.0117	-0.0117
1.6791	-0.0117	-0.0176	-0.0059	0.0146	-0.0029	-0.0117	0.0000	0.0000	-0.0059	-0.0117	-0.0117	-0.0117
1.6824	-0.0117	-0.0176	-0.0059	0.0146	-0.0029	-0.0117	0.0000	0.0059	0.0000	-0.0117	-0.0117	-0.0117
1.6858	-0.0117	-0.0176	-0.0059	0.0146	-0.0029	-0.0117	0.0000	0.0117	0.0000	-0.0117	-0.0117	-0.0117
1.6892	-0.0059	-0.0176	-0.0117	0.0117	0.0029	-0.0146	0.0000	0.0176	0.0000	-0.0117	-0.0117	-0.0117
1.6926	-0.0059	-0.0176	-0.0117	0.0117	0.0029	-0.0146	0.0000	0.0117	0.0000	-0.0117	-0.0117	-0.0117
1.6959	-0.0117	-0.0176	-0.0059	0.0146	-0.0029	-0.0117	0.0000	0.0059	0.0000	-0.0117	-0.0117	-0.0117
1.6993	-0.0117	-0.0176	-0.0059	0.0146	-0.0029	-0.0117	0.0000	0.0000	-0.0059	-0.0117	-0.0117	-0.0117
1.7027	-0.0117	-0.0234	-0.0117	0.0176	0.0000	-0.0176	0.0000	0.0000	-0.0117	-0.0117	-0.0117	-0.0117
1.7061	-0.0117	-0.0293	-0.0176	0.0205	0.0029	-0.0234	0.0000	0.0000	-0.0117	-0.0117	-0.0117	-0.0117
1.7095	-0.0117	-0.0293	-0.0176	0.0205	0.0029	-0.0234	0.0000	0.0000	-0.0117	-0.0117	-0.0176	-0.0117
1.7128	-0.0117	-0.0293	-0.0176	0.0205	0.0029	-0.0234	0.0000	0.0059	-0.0117	-0.0117	-0.0234	-0.0117
1.7162	-0.0117	-0.0293	-0.0176	0.0205	0.0029	-0.0234	0.0000	0.0117	-0.0117	-0.0117	-0.0234	-0.0117
1.7196	-0.0117	-0.0293	-0.0176	0.0205	0.0029	-0.0234	0.0000	0.0117	-0.0117	-0.0117	-0.0234	-0.0117
1.7230	-0.0117	-0.0234	-0.0117	0.0176	0.0000	-0.0176	0.0000	0.0059	-0.0117	-0.0117	-0.0234	-0.0117
1.7264	-0.0117	-0.0293	-0.0176	0.0205	0.0029	-0.0234	0.0000	0.0000	-0.0117	-0.0117	-0.0234	-0.0117
1.7297	-0.0117	-0.0293	-0.0176	0.0205	0.0029	-0.0234	0.0000	0.0000	-0.0059	-0.0117	-0.0234	-0.0117
1.7331	-0.0117	-0.0293	-0.0176	0.0205	0.0029	-0.0234	0.0000	0.0000	0.0000	-0.0117	-0.0234	-0.0117
1.7365	-0.0117	-0.0293	-0.0176	0.0205	0.0029	-0.0234	0.0000	0.0059	0.0000	-0.0117	-0.0234	-0.0117
1.7399	-0.0117	-0.0352	-0.0234	0.0234	0.0059	-0.0293	0.0000	0.0117	0.0000	-0.0117	-0.0234	-0.0117
1.7432	-0.0117	-0.0410	-0.0293	0.0264	0.0088	-0.0352	0.0059	0.0117	0.0000	-0.0117	-0.0234	-0.0117
1.7466	-0.0117	-0.0352	-0.0234	0.0234	0.0059	-0.0293	0.0117	0.0117	0.0000	-0.0117	-0.0234	-0.0117
1.7500	-0.0117	-0.0293	-0.0176	0.0205	0.0029	-0.0234	0.0117	0.0117	0.0000	-0.0117	-0.0234	-0.0117
1.7534	-0.0117	-0.0234	-0.0117	0.0176	0.0000	-0.0176	0.0117	0.0117	0.0000	-0.0117	-0.0234	-0.0117
1.7568	-0.0117	-0.0176	-0.0059	0.0146	-0.0029	-0.0117	0.0117	0.0117	0.0000	-0.0117	-0.0117	-0.0117
1.7601	-0.0117	0.0000	0.0117	0.0059	-0.0117	0.0059	0.0176	0.0117	0.0000	-0.0117	-0.0117	-0.0117
1.7635	-0.0117	0.0117	0.0234	0.0000	-0.0176	0.0176	0.0234	0.0176	0.0000	-0.0117	-0.0117	-0.0117
1.7669	-0.0059	0.0234	0.0293	-0.0088	-0.0176	0.0264	0.0234	0.0176	0.0000	-0.0117	-0.0117	-0.0059
1.7703	0.0000	0.0293	0.0293	-0.0146	-0.0146	0.0293	0.0293	0.0293	0.0117	-0.0059	-0.0117	0.0000
1.7736	0.0117	0.0410	0.0293	-0.0264	-0.0088	0.0352	0.0352	0.0352	0.0234	0.0000	-0.0059	0.0000
1.7770	0.0293	0.0586	0.0293	-0.0439	0.0000	0.0439	0.0352	0.0469	0.0293	0.0059	0.0059	0.0000
1.7804	0.0469	0.0703	0.0234	-0.0586	0.0117	0.0469	0.0352	0.0527	0.0293	0.0117	0.0117	0.0059
1.7838	0.0586	0.0820	0.0234	-0.0703	0.0176	0.0527	0.0293	0.0527	0.0352	0.0117	0.0117	0.0117
1.7872	0.0586	0.0879	0.0293	-0.0732	0.0146	0.0586	0.0234	0.0527	0.0352	0.0117	0.0117	0.0117
1.7905	0.0527	0.0879	0.0352	-0.0703	0.0088	0.0615	0.0176	0.0469	0.0234	0.0059	0.0059	0.0117
1.7939	0.0469	0.0820	0.0352	-0.0645	0.0059	0.0586	0.0117	0.0352	0.0117	0.0000	0.0059	0.0117
1.7973	0.0352	0.0762	0.0410	-0.0557	-0.0029	0.0586	0.0059	0.0234	0.0117	0.0000	0.0000	0.0117
1.8007	0.0352	0.0586	0.0234	-0.0469	0.0059	0.0410	0.0000	0.0234	0.0117	-0.0059	-0.0059	0.0059
1.8041	0.0352	0.0469	0.0117	-0.0410	0.0117	0.0293	0.0000	0.0234	0.0117	-0.0117	-0.0059	0.0000
1.8074	0.0352	0.0293	-0.0059	-0.0322	0.0205	0.0117	0.0000	0.0293	0.0117	-0.0117	-0.0059	0.0000
1.8108	0.0469	0.0117	-0.0352	-0.0293	0.0410	-0.0117	0.0000	0.0293	0.0117	-0.0117	0.0000	0.0000
1.8142	0.0527	-0.0059	-0.0586	-0.0234	0.0557	-0.0322	0.0000	0.0293	0.0117	-0.0117	0.0000	0.0000
1.8176	0.0469	-0.0234	-0.0703	-0.0117	0.0586	-0.0469	0.0000	0.0234	0.0000	-0.0176	-0.0059	-0.0059
1.8209	0.0352	-0.0469	-0.0820	0.0059	0.0586	-0.0645	0.0000	0.0117	-0.0117	-0.0234	-0.0117	-0.0176
1.8243	0.0117	-0.0645	-0.0762	0.0264	0.0439	-0.0703	0.0000	0.0000	-0.0234	-0.0293	-0.0234	-0.0234
1.8277	-0.0117	-0.0820	-0.0703	0.0469	0.0293	-0.0762	0.0000	-0.0117	-0.0293	-0.0352	-0.0352	-0.0352
1.8311	-0.0352	-0.1055	-0.0703	0.0703	0.0176	-0.0879	0.0059	-0.0117	-0.0352	-0.0469	-0.0469	-0.0352
1.8345	-0.0586	-0.1113	-0.0527	0.0850	-0.0029	-0.0820	0.0117	-0.0117	-0.0352	-0.0469	-0.0469	-0.0352
1.8378	-0.0703	-0.1055	-0.0352	0.0879	-0.0176	-0.0703	0.0117	0.0000	-0.0352	-0.0469	-0.0469	-0.0352
1.8412	-0.0703	-0.1055	-0.0352	0.0879	-0.0176	-0.0703	0.0117	0.0000	-0.0234	-0.0469	-0.0410	-0.0352
1.8446	-0.0645	-0.1055	-0.0410	0.0850	-0.0117	-0.0732	0.0117	-0.0117	-0.0234	-0.0469	-0.0352	-0.0352
1.8480	-0.0527	-0.0996	-0.0469	0.0762	-0.0029	-0.0732	0.0059	-0.0234	-0.0352	-0.0469	-0.0352	-0.0352
1.8514	-0.0527	-0.0938	-0.0410	0.0732	-0.0059	-0.0674	0.0000	-0.0352	-0.0352	-0.0469	-0.0352	-0.0352
1.8547	-0.0527	-0.0996	-0.0469	0.0762	-0.0029	-0.0732	0.0000	-0.0352	-0.0352	-0.0469	-0.0410	-0.0352
1.8581	-0.0645	-0.1055	-0.0410	0.0850	-0.0117	-0.0732	0.0059	-0.0234	-0.0352	-0.0469	-0.0469	-0.0352
1.8615	-0.0703	-0.1055	-0.0352	0.0879	-0.0176	-0.0703	0.0117	-0.0117	-0.0234	-0.0469	-0.0469	-0.0352
1.8649	-0.0703	-0.1055	-0.0352	0.0879	-0.0176	-0.0703	0.0176	0.0059	-0.0117	-0.0469	-0.0469	-0.0352
1.8682	-0.0645	-0.1055	-0.0410	0.0850	-0.0117	-0.0732	0.0234	0.0234	0.0000	-0.0410	-0.0352	-0.0352
1.8716	-0.0586	-0.1113	-0.0527	0.0850	-0.0029	-0.0820	0.0234	0.0352	0.0000	-0.0293	-0.0352	-0.0352
1.8750	-0.0586	-0.1172	-0.0586	0.0879	0.0000	-0.0879	0.0234	0.0293	0.0000	-0.0234	-0.0352	-0.0410
1.8784	-0.0586	-0.1289	-0.0703	0.0938	0.0059	-0.0996	0.0352	0.0293	0.0000	-0.0234	-0.0352	-0.0527
1.8818	-0.0586	-0.1406	-0.0820	0.0996	0.0117	-0.1113	0.0469	0.0352	0.0059	-0.0234	-0.0352	-0.0527
1.8851	-0.0586	-0.1406	-0.0820	0.0996	0.0117	-0.1113	0.0586	0.0586	0.0234	-0.0059	-0.0234	-0.0469
1.8885	-0.0352	-0.0938	-0.0586	0.0645	0.0117	-0.0762	0.0645	0.1055	0.0703	0.0352	0.0117	-0.0234
1.8919	0.0234	0.0000	-0.0234	-0.0117	0.0234	-0.0117	0.0586	0.1641	0.1406	0.1055	0.0879	0.0293
1.8953	0.1289	0.1641	0.0352	-0.1465	0.0469	0.0996	0.0352	0.2344	0.2344	0.2109	0.1992	0.1172
1.8986	0.2813	0.3809	0.0996	-0.3311	0.0908	0.2402	-0.0117	0.2813	0.3281	0.3398	0.3457	0.2344
1.9020	0.4570	0.6328	0.1758	-0.5449	0.1406	0.4043	-0.0820	0.2813	0.3984	0.4805	0.5039	0.3633
1.9054	0.6211	0.8789	0.2578	-0.7500	0.1816	0.5684	-0.1523	0.2227	0.4219	0.6094	0.6445	0.4863
1.9088	0.7266	1.0723	0.3457	-0.8994	0.1904	0.7090	-0.2227	0.0996	0.3926	0.6914	0.7383	0.5742
1.9122	0.7500	1.1719	0.4219	-0.9609	0.1641	0.7969	-0.2695	-0.0820	0.3047	0.7031	0.7617	0.6094
1.9155	0.6680	1.1484	0.4805	-0.9082	0.0938	0.8145	-0.2930	-0.2813	0.1641	0.6328	0.6914	0.5742
1.9189	0.4922	1.0078	0.5156	-0.7500	-0.0117	0.7617	-0.2930	-0.4688	-0.0117	0.5039	0.5391	0.4746
1.9223	0.2461	0.7617	0.5156	-0.5039	-0.1348	0.6387	-0.2578	-0.6211	-0.1875	0.3164	0.3398	0.3281
1.9257	-0.0117	0.4629	0.4746	-0.2256	-0.2432	0.4688	-0.2051	-0.7031	-0.3281	0.1055	0.1172	0.1641
1.9291	-0.2344	0.1523	0.3867	0.0410	-0.3105	0.2695	-0.1523	-0.7148	-0.4219	-0.0938	-0.0820	0.0000
1.9324	-0.3867	-0.1172	0.2695	0.2520	-0.3281	0.0762	-0.1055	-0.6680	-0.4570	-0.2461	-0.2402	-0.1289
1.9358	-0.4512	-0.3223	0.1289	0.3867	-0.2900	-0.0967	-0.0703	-0.5859	-0.4453	-0.3340	-0.3340	-0.2109
1.9392	-0.4336	-0.4453	-0.0117	0.4395	-0.2109	-0.2285	-0.0586	-0.4746	-0.3867	-0.3633	-0.3633	-0.2461
1.9426	-0.3574	-0.4805	-0.1230	0.4189	-0.1172	-0.3018	-0.0586	-0.3633	-0.3047	-0.3516	-0.3516	-0.2461
1.9459	-0.2637	-0.4688	-0.2051	0.3662	-0.0293	-0.3369	-0.0586	-0.2637	-0.2227	-0.3047	-0.3047	-0.2227
1.9493	-0.1699	-0.4219	-0.2520	0.2959	0.0410	-0.3369	-0.0527	-0.1758	-0.1523	-0.2520	-0.2461	-0.1875
1.9527	-0.1055	-0.3633	-0.2578	0.2344	0.0762	-0.3105	-0.0352	-0.1055	-0.0938	-0.1992	-0.1992	-0.1582
1.9561	-0.0820	-0.3164	-0.2344	0.1992	0.0762	-0.2754	-0.0117	-0.0410	-0.0469	-0.1641	-0.1758	-0.1406
1.9595	-0.0879	-0.2813	-0.1934	0.1846	0.0527	-0.2373	0.0234	0.0117	-0.0176	-0.1406	-0.1641	-0.1289
1.9628	-0.1055	-0.2578	-0.1523	0.1816	0.0234	-0.2051	0.0527	0.0586	0.0059	-0.1289	-0.1523	-0.1230
1.9662	-0.1172	-0.2402	-0.1230	0.1787	0.0029	-0.1816	0.0703	0.0938	0.0176	-0.1230	-0.1406	-0.1230
1.9696	-0.1230	-0.2227	-0.0996	0.1729	-0.0117	-0.1611	0.0820	0.1172	0.0293	-0.1172	-0.1289	-0.1172
1.9730	-0.1172	-0.2051	-0.0879	0.1611	-0.0146	-0.1465	0.0820	0.1289	0.0352	-0.1055	-0.1172	-0.1055
1.9764	-0.0938	-0.1875	-0.0938	0.1406	0.0000	-0.1406	0.0762	0.1289	0.0352	-0.0938	-0.0996	-0.0938
1.9797	-0.0762	-0.1758	-0.0996	0.1260	0.0117	-0.1377	0.0703	0.1172	0.0352	-0.0820	-0.0820	-0.0820
1.9831	-0.0703	-0.1582	-0.0879	0.1143	0.0088	-0.1230	0.0703	0.1113	0.0234	-0.0703	-0.0820	-0.0703
1.9865	-0.0703	-0.1523	-0.0820	0.1113	0.0059	-0.1172	0.0703	0.1055	0.0234	-0.0703	-0.0820	-0.0703
1.9899	-0.0703	-0.1523	-0.0820	0.1113	0.0059	-0.1172	0.0703	0.1055	0.0234	-0.0703	-0.0820	-0.0703
1.9932	-0.0762	-0.1523	-0.0762	0.1143	0.0000	-0.1143	0.0762	0.1055	0.0234	-0.0703	-0.0820	-0.0703
1.9966	-0.0820	-0.1465	-0.0645	0.1143	-0.0088	-0.1055	0.0762	0.1055	0.0234	-0.0703	-0.0762	-0.0645
2.0000	-0.0762	-0.1406	-0.0645	0.1084	-0.0059	-0.1025	0.0703	0.1113	0.0234	-0.0703	-0.0703	-0.0586
2.0034	-0.0703	-0.1348	-0.0645	0.1025	-0.0029	-0.0996	0.0703	0.1055	0.0234	-0.0586	-0.0586	-0.0586
2.0068	-0.0586	-0.1289	-0.0703	0.0938	0.0059	-0.0996	0.0645	0.0996	0.0176	-0.0527	-0.0527	-0.0527
2.0101	-0.0527	-0.1172	-0.0645	0.0850	0.0059	-0.0908	0.0586	0.0938	0.0117	-0.0469	-0.0469	-0.0469
2.0135	-0.0469	-0.1113	-0.0645	0.0791	0.0088	-0.0879	0.0586	0.0938	0.0117	-0.0469	-0.0469	-0.0469
2.0169	-0.0469	-0.1055	-0.0586	0.0762	0.0059	-0.0820	0.0586	0.0879	0.0117	-0.0469	-0.0469	-0.0469
2.0203	-0.0469	-0.1055	-0.0586	0.0762	0.0059	-0.0820	0.0586	0.0820	0.0117	-0.0469	-0.0469	-0.0469
2.0236	-0.0469	-0.0996	-0.0527	0.0732	0.0029	-0.0762	0.0586	0.0820	0.0117	-0.0469	-0.0469	-0.0410
2.0270	-0.0469	-0.0938	-0.0469	0.0703	0.0000	-0.0703	0.0527	0.0820	0.0117	-0.0469	-0.0469	-0.0352
2.0304	-0.0469	-0.0879	-0.0410	0.0674	-0.0029	-0.0645	0.0469	0.0820	0.0117	-0.0410	-0.0410	-0.0352
2.0338	-0.0410	-0.0820	-0.0410	0.0615	0.0000	-0.0615	0.0469	0.0820	0.0117	-0.0352	-0.0352	-0.0352
2.0372	-0.0352	-0.0762	-0.0410	0.0557	0.0029	-0.0586	0.0469	0.0820	0.0117	-0.0293	-0.0293	-0.0293
2.0405	-0.0293	-0.0703	-0.0410	0.0498	0.0059	-0.0557	0.0410	0.0820	0.0117	-0.0234	-0.0234	-0.0234
2.0439	-0.0234	-0.0645	-0.0410	0.0439	0.0088	-0.0527	0.0352	0.0820	0.0176	-0.0176	-0.0234	-0.0234
2.0473	-0.0234	-0.0586	-0.0352	0.0410	0.0059	-0.0469	0.0352	0.0820	0.0234	-0.0117	-0.0234	-0.0234
2.0507	-0.0234	-0.0527	-0.0293	0.0381	0.0029	-0.0410	0.0352	0.0820	0.0234	-0.0117	-0.0234	-0.0234
2.0541	-0.0176	-0.0469	-0.0293	0.0322	0.0059	-0.0381	0.0352	0.0820	0.0234	-0.0117	-0.0234	-0.0234
2.0574	-0.0117	-0.0410	-0.0293	0.0264	0.0088	-0.0352	0.0352	0.0820	0.0234	-0.0117	-0.0176	-0.0234
2.0608	-0.0117	-0.0352	-0.0234	0.0234	0.0059	-0.0293	0.0352	0.0820	0.0234	-0.0117	-0.0117	-0.0176
2.0642	-0.0059	-0.0293	-0.0234	0.0176	0.0088	-0.0264	0.0352	0.0820	0.0293	-0.0059	-0.0059	-0.0117
2.0676	0.0000	-0.0234	-0.0234	0.0117	0.0117	-0.0234	0.0293	0.0879	0.0352	0.0000	0.0000	-0.0059
2.0709	0.0117	-0.0117	-0.0234	0.0000	0.0176	-0.0176	0.0234	0.0938	0.0410	0.0059	0.0059	0.0000
2.0743	0.0176	-0.0059	-0.0234	-0.0059	0.0205	-0.0146	0.0234	0.0938	0.0410	0.0117	0.0117	0.0000
2.0777	0.0234	0.0000	-0.0234	-0.0117	0.0234	-0.0117	0.0234	0.0938	0.0469	0.0117	0.0117	0.0000
2.0811	0.0234	0.0059	-0.0176	-0.0146	0.0205	-0.0059	0.0234	0.0938	0.0527	0.0176	0.0176	0.0059
2.0845	0.0293	0.0117	-0.0176	-0.0205	0.0234	-0.0029	0.0234	0.0938	0.0527	0.0234	0.0234	0.0117
2.0878	0.0352	0.0234	-0.0117	-0.0293	0.0234	0.0059	0.0176	0.0996	0.0586	0.0234	0.0234	0.0117
2.0912	0.0410	0.0352	-0.0059	-0.0381	0.0234	0.0146	0.0117	0.1055	0.0645	0.0293	0.0293	0.0117
2.0946	0.0469	0.0469	0.0000	-0.0469	0.0234	0.0234	0.0117	0.1113	0.0703	0.0352	0.0352	0.0117
2.0980	0.0527	0.0527	0.0000	-0.0527	0.0264	0.0264	0.0117	0.1172	0.0703	0.0410	0.0410	0.0176
2.1014	0.0586	0.0586	0.0000	-0.0586	0.0293	0.0293	0.0117	0.1172	0.0703	0.0469	0.0469	0.0234
2.1047	0.0703	0.0703	0.0000	-0.0703	0.0352	0.0352	0.0059	0.1172	0.0703	0.0527	0.0527	0.0293
2.1081	0.0820	0.0879	0.0059	-0.0850	0.0381	0.0469	0.0000	0.1172	0.0762	0.0586	0.0586	0.0352
2.1115	0.0879	0.1055	0.0176	-0.0967	0.0352	0.0615	0.0000	0.1172	0.0820	0.0586	0.0586	0.0469
2.1149	0.0938	0.1172	0.0234	-0.1055	0.0352	0.0703	-0.0059	0.1172	0.0820	0.0645	0.0645	0.0527
2.1182	0.1055	0.1348	0.0293	-0.1201	0.0381	0.0820	-0.0117	0.1172	0.0820	0.0703	0.0703	0.0586
2.1216	0.1113	0.1465	0.0352	-0.1289	0.0381	0.0908	-0.0117	0.1172	0.0820	0.0703	0.0762	0.0645
2.1250	0.1172	0.1582	0.0410	-0.1377	0.0381	0.0996	-0.0176	0.1113	0.0820	0.0762	0.0820	0.0703
2.1284	0.1289	0.1699	0.0410	-0.1494	0.0439	0.1055	-0.0234	0.1055	0.0703	0.0820	0.0820	0.0703
2.1318	0.1348	0.1758	0.0410	-0.1553	0.0469	0.1084	-0.0234	0.0996	0.0703	0.0820	0.0820	0.0703
2.1351	0.1289	0.1875	0.0586	-0.1582	0.0352	0.1230	-0.0234	0.0938	0.0703	0.0820	0.0879	0.0703
2.1385	0.1289	0.1934	0.0645	-0.1611	0.0322	0.1289	-0.0234	0.0938	0.0703	0.0820	0.0820	0.0703
2.1419	0.1289	0.1992	0.0703	-0.1641	0.0293	0.1348	-0.0234	0.0879	0.0703	0.0820	0.0820	0.0762
2.1453	0.1289	0.2051	0.0762	-0.1670	0.0264	0.1406	-0.0234	0.0820	0.0645	0.0820	0.0820	0.0820
2.1486	0.1289	0.2051	0.0762	-0.1670	0.0264	0.1406	-0.0234	0.0703	0.0527	0.0820	0.0820	0.0820
2.1520	0.1289	0.1992	0.0703	-0.1641	0.0293	0.1348	-0.0234	0.0645	0.0469	0.0820	0.0820	0.0820
2.1554	0.1230	0.1992	0.0762	-0.1611	0.0234	0.1377	-0.0234	0.0586	0.0469	0.0762	0.0762	0.0820
2.1588	0.1172	0.1992	0.0820	-0.1582	0.0176	0.1406	-0.0234	0.0469	0.0410	0.0703	0.0703	0.0762
2.1622	0.1113	0.1934	0.0820	-0.1523	0.0146	0.1377	-0.0234	0.0410	0.0293	0.0645	0.0703	0.0703
2.1655	0.1055	0.1875	0.0820	-0.1465	0.0117	0.1348	-0.0234	0.0352	0.0234	0.0586	0.0703	0.0703
2.1689	0.0938	0.1758	0.0820	-0.1348	0.0059	0.1289	-0.0234	0.0234	0.0234	0.0586	0.0645	0.0703
2.1723	0.0879	0.1582	0.0703	-0.1230	0.0088	0.1143	-0.0234	0.0176	0.0234	0.0586	0.0586	0.0586
2.1757	0.0762	0.1406	0.0645	-0.1084	0.0059	0.1025	-0.0234	0.0117	0.0117	0.0527	0.0527	0.0527
2.1791	0.0586	0.1230	0.0645	-0.0908	-0.0029	0.0938	-0.0234	0.0000	0.0059	0.0469	0.0410	0.0469
2.1824	0.0410	0.0996	0.0586	-0.0703	-0.0088	0.0791	-0.0234	-0.0117	-0.0059	0.0352	0.0352	0.0352
2.1858	0.0234	0.0762	0.0527	-0.0498	-0.0146	0.0645	-0.0176	-0.0234	-0.0117	0.0234	0.0234	0.0234
2.1892	0.0117	0.0586	0.0469	-0.0352	-0.0176	0.0527	-0.0117	-0.0352	-0.0176	0.0176	0.0117	0.0117
2.1926	-0.0059	0.0410	0.0469	-0.0176	-0.0264	0.0439	-0.0059	-0.0469	-0.0293	0.0117	0.0059	0.0000
2.1959	-0.0234	0.0176	0.0410	0.0029	-0.0322	0.0293	0.0000	-0.0527	-0.0352	0.0000	0.0000	-0.0059
2.1993	-0.0352	-0.0059	0.0293	0.0205	-0.0322	0.0117	0.0000	-0.0586	-0.0410	-0.0117	-0.0059	-0.0117
2.2027	-0.0469	-0.0293	0.0176	0.0381	-0.0322	-0.0059	0.0000	-0.0703	-0.0527	-0.0234	-0.0234	-0.0176
2.2061	-0.0527	-0.0527	0.0000	0.0527	-0.0264	-0.0264	0.0000	-0.0762	-0.0586	-0.0293	-0.0293	-0.0234
2.2095	-0.0586	-0.0703	-0.0117	0.0645	-0.0234	-0.0410	0.0059	-0.0820	-0.0586	-0.0352	-0.0352	-0.0234
2.2128	-0.0645	-0.0820	-0.0176	0.0732	-0.0234	-0.0498	0.0117	-0.0879	-0.0586	-0.0410	-0.0410	-0.0293
2.2162	-0.0703	-0.0938	-0.0234	0.0820	-0.0234	-0.0586	0.0117	-0.0938	-0.0586	-0.0469	-0.0469	-0.0352
2.2196	-0.0762	-0.0996	-0.0234	0.0879	-0.0264	-0.0615	0.0059	-0.0938	-0.0586	-0.0469	-0.0469	-0.0352
2.2230	-0.0820	-0.1055	-0.0234	0.0938	-0.0293	-0.0645	0.0000	-0.0938	-0.0586	-0.0469	-0.0469	-0.0410
2.2264	-0.0820	-0.1113	-0.0293	0.0967	-0.0264	-0.0703	0.0000	-0.0938	-0.0586	-0.0527	-0.0469	-0.0469
2.2297	-0.0820	-0.1172	-0.0352	0.0996	-0.0234	-0.0762	0.0000	-0.0938	-0.0586	-0.0586	-0.0527	-0.0469
2.2331	-0.0820	-0.1172	-0.0352	0.0996	-0.0234	-0.0762	0.0000	-0.0938	-0.0586	-0.0586	-0.0586	-0.0469
2.2365	-0.0762	-0.1172	-0.0410	0.0967	-0.0176	-0.0791	0.0000	-0.0938	-0.0586	-0.0586	-0.0586	-0.0469
2.2399	-0.0703	-0.1113	-0.0410	0.0908	-0.0146	-0.0762	0.0000	-0.0879	-0.0586	-0.0586	-0.0586	-0.0469
2.2432	-0.0645	-0.1113	-0.0469	0.0879	-0.0088	-0.0791	0.0000	-0.0820	-0.0586	-0.0527	-0.0527	-0.0469
2.2466	-0.0703	-0.1055	-0.0352	0.0879	-0.0176	-0.0703	0.0000	-0.0820	-0.0586	-0.0469	-0.0469	-0.0410
2.2500	-0.0703	-0.0996	-0.0293	0.0850	-0.0205	-0.0645	0.0000	-0.0820	-0.0469	-0.0410	-0.0469	-0.0352
2.2534	-0.0703	-0.0996	-0.0293	0.0850	-0.0205	-0.0645	0.0000	-0.0703	-0.0469	-0.0469	-0.0469	-0.0352
2.2568	-0.0645	-0.0938	-0.0293	0.0791	-0.0176	-0.0615	0.0000	-0.0703	-0.0469	-0.0469	-0.0410	-0.0352
2.2601	-0.0586	-0.0879	-0.0293	0.0732	-0.0146	-0.0586	0.0000	-0.0703	-0.0410	-0.0410	-0.0352	-0.0352
2.2635	-0.0527	-0.0879	-0.0352	0.0703	-0.0088	-0.0615	0.0000	-0.0703	-0.0352	-0.0352	-0.0352	-0.0352
2.2669	-0.0527	-0.0879	-0.0352	0.0703	-0.0088	-0.0615	0.0000	-0.0645	-0.0352	-0.0352	-0.0352	-0.0352
2.2703	-0.0586	-0.0820	-0.0234	0.0703	-0.0176	-0.0527	0.0000	-0.0586	-0.0352	-0.0352	-0.0352	-0.0352
2.2736	-0.0586	-0.0820	-0.0234	0.0703	-0.0176	-0.0527	0.0000	-0.0527	-0.0352	-0.0352	-0.0293	-0.0352
2.2770	-0.0527	-0.0762	-0.0234	0.0645	-0.0146	-0.0498	0.0000	-0.0527	-0.0352	-0.0293	-0.0293	-0.0352
2.2804	-0.0469	-0.0703	-0.0234	0.0586	-0.0117	-0.0469	0.0000	-0.0469	-0.0352	-0.0234	-0.0352	-0.0293
2.2838	-0.0410	-0.0645	-0.0234	0.0527	-0.0088	-0.0439	0.0000	-0.0469	-0.0293	-0.0234	-0.0293	-0.0234
2.2872	-0.0410	-0.0586	-0.0176	0.0498	-0.0117	-0.0381	0.0000	-0.0352	-0.0234	-0.0234	-0.0234	-0.0234
2.2905	-0.0352	-0.0527	-0.0176	0.0439	-0.0088	-0.0352	0.0000	-0.0352	-0.0234	-0.0234	-0.0176	-0.0234
2.2939	-0.0293	-0.0469	-0.0176	0.0381	-0.0059	-0.0322	0.0000	-0.0352	-0.0234	-0.0234	-0.0176	-0.0234
2.2973	-0.0293	-0.0410	-0.0117	0.0352	-0.0088	-0.0264	0.0000	-0.0352	-0.0234	-0.0176	-0.0234	-0.0176
2.3007	-0.0352	-0.0352	0.0000	0.0352	-0.0176	-0.0176	0.0000	-0.0293	-0.0176	-0.0117	-0.0176	-0.0117
2.3041	-0.0293	-0.0293	0.0000	0.0293	-0.0146	-0.0146	0.0000	-0.0234	-0.0117	-0.0117	-0.0117	-0.0117
2.3074	-0.0234	-0.0293	-0.0059	0.0264	-0.0088	-0.0176	0.0000	-0.0234	-0.0117	-0.0117	-0.0117	-0.0117
2.3108	-0.0176	-0.0234	-0.0059	0.0205	-0.0059	-0.0146	0.0000	-0.0234	-0.0117	-0.0117	-0.0117	-0.0117
2.3142	-0.0176	-0.0234	-0.0059	0.0205	-0.0059	-0.0146	0.0000	-0.0176	-0.0117	-0.0059	-0.0059	-0.0117
2.3176	-0.0176	-0.0176	0.0000	0.0176	-0.0088	-0.0088	0.0000	-0.0117	-0.0117	0.0000	-0.0059	-0.0117
2.3209	-0.0234	-0.0117	0.0117	0.0176	-0.0176	0.0000	0.0000	-0.0117	-0.0117	0.0000	-0.0117	-0.0117
2.3243	-0.0176	-0.0059	0.0117	0.0117	-0.0146	0.0029	0.0000	-0.0117	-0.0117	0.0000	-0.0117	-0.0117
2.3277	-0.0117	-0.0059	0.0059	0.0088	-0.0088	0.0000	0.0000	-0.0117	-0.0117	0.0000	-0.0117	-0.0117
2.3311	-0.0059	-0.0059	0.0000	0.0059	-0.0029	-0.0029	0.0000	-0.0117	-0.0117	0.0000	-0.0117	-0.0117
2.3345	-0.0059	0.0000	0.0059	0.0029	-0.0059	0.0029	0.0000	-0.0117	-0.0117	0.0000	-0.0059	-0.0059
2.3378	-0.0059	0.0059	0.0117	0.0000	-0.0088	0.0088	0.0000	-0.0117	-0.0117	0.0000	-0.0059	0.0000
2.3412	0.0000	0.0059	0.0059	-0.0029	-0.0029	0.0059	0.0000	-0.0117	-0.0059	0.0000	-0.0117	0.0000
2.3446	0.0059	0.0059	0.0000	-0.0059	0.0029	0.0029	-0.0059	-0.0117	0.0000	0.0000	-0.0117	0.0000
2.3480	0.0059	0.0059	0.0000	-0.0059	0.0029	0.0029	-0.0117	-0.0117	0.0000	0.0000	-0.0117	0.0000
2.3514	0.0000	0.0059	0.0059	-0.0029	-0.0029	0.0059	-0.0117	-0.0117	0.0000	0.0000	-0.0117	0.0000
2.3547	0.0059	0.0117	0.0059	-0.0088	0.0000	0.0088	-0.0117	-0.0059	0.0000	0.0000	-0.0059	0.0000
2.3581	0.0059	0.0176	0.0117	-0.0117	-0.0029	0.0146	-0.0117	0.0000	0.0000	0.0000	-0.0059	0.0000
2.3615	0.0059	0.0176	0.0117	-0.0117	-0.0029	0.0146	-0.0117	0.0000	0.0000	0.0000	-0.0117	0.0000
2.3649	0.0059	0.0176	0.0117	-0.0117	-0.0029	0.0146	-0.0117	0.0000	0.0000	0.0000	-0.0117	0.0000
2.3682	0.0000	0.0176	0.0176	-0.0088	-0.0088	0.0176	-0.0059	0.0000	0.0000	0.0000	-0.0117	0.0000
2.3716	0.0059	0.0176	0.0117	-0.0117	-0.0029	0.0146	0.0000	0.0000	0.0000	0.0000	-0.0059	0.0000
2.3750	0.0059	0.0117	0.0059	-0.0088	0.0000	0.0088	0.0000	0.0000	0.0000	0.0000	0.0000	0.0000
2.3784	0.0059	0.0059	0.0000	-0.0059	0.0029	0.0029	0.0000	0.0000	0.0000	0.0000	0.0059	0.0000
2.3818	0.0059	0.0059	0.0000	-0.0059	0.0029	0.0029	0.0000	0.0000	0.0000	0.0000	0.0000	0.0000
2.3851	0.0059	0.0059	0.0000	-0.0059	0.0029	0.0029	0.0000	0.0000	0.0000	0.0000	0.0000	0.0000
2.3885	0.0000	0.0059	0.0059	-0.0029	-0.0029	0.0059	0.0000	0.0000	0.0000	0.0000	0.0000	0.0000
2.3919	0.0059	0.0059	0.0000	-0.0059	0.0029	0.0029	0.0000	0.0000	0.0000	0.0000	0.0000	0.0000
2.3953	0.0059	0.0059	0.0000	-0.0059	0.0029	0.0029	0.0000	0.0000	0.0000	0.0000	0.0059	0.0000
2.3986	0.0059	0.0059	0.0000	-0.0059	0.0029	0.0029	0.0000	0.0000	0.0000	0.0000	0.0000	0.0000
2.4020	0.0059	0.0059	0.0000	-0.0059	0.0029	0.0029	0.0000	0.0000	0.0000	0.0000	0.0000	0.0000
2.4054	0.0059	0.0059	0.0000	-0.0059	0.0029	0.0029	0.0000	0.0000	0.0000	0.0000	0.0000	0.0000
2.4088	0.0000	0.0059	0.0059	-0.0029	-0.0029	0.0059	0.0000	0.0000	0.0000	0.0000	0.0000	0.0000
2.4122	0.0059	0.0000	-0.0059	-0.0029	0.0059	-0.0029	0.0000	0.0000	0.0000	0.0000	0.0000	0.0000
2.4155	0.0059	-0.0059	-0.0117	0.0000	0.0088	-0.0088	0.0000	0.0000	0.0000	0.0059	0.0059	0.0000
2.4189	0.0059	-0.0059	-0.0117	0.0000	0.0088	-0.0088	0.0000	0.0000	0.0000	0.0059	0.0000	0.0000
2.4223	0.0059	-0.0059	-0.0117	0.0000	0.0088	-0.0088	0.0000	0.0000	-0.0059	0.0000	0.0000	0.0000
2.4257	0.0059	-0.0059	-0.0117	0.0000	0.0088	-0.0088	0.0000	0.0000	-0.0117	-0.0059	0.0000	0.0000
2.4291	0.0059	-0.0059	-0.0117	0.0000	0.0088	-0.0088	0.0000	0.0000	-0.0117	-0.0117	0.0000	0.0000
2.4324	0.0059	0.0000	-0.0059	-0.0029	0.0059	-0.0029	0.0000	0.0000	-0.0117	-0.0117	0.0000	0.0000
2.4358	0.0059	0.0059	0.0000	-0.0059	0.0029	0.0029	0.0000	0.0000	-0.0059	-0.0059	0.0059	0.0000
2.4392	0.0059	0.0059	0.0000	-0.0059	0.0029	0.0029	0.0000	0.0000	0.0000	0.0000	0.0000	0.0000
2.4426	0.0059	0.0059	0.0000	-0.0059	0.0029	0.0029	0.0000	0.0000	0.0000	0.0000	0.0000	0.0000
2.4459	0.0059	0.0059	0.0000	-0.0059	0.0029	0.0029	0.0000	0.0000	0.0000	0.0000	0.0000	0.0000
2.4493	0.0059	0.0059	0.0000	-0.0059	0.0029	0.0029	0.0000	0.0000	0.0000	0.0000	0.0000	0.0000
2.4527	0.0059	0.0059	0.0000	-0.0059	0.0029	0.0029	0.0000	0.0000	0.0000	0.0000	0.0000	0.0000
2.4561	0.0059	0.0059	0.0000	-0.0059	0.0029	0.0029	0.0000	0.0000	0.0000	0.0000	0.0059	0.0000
2.4595	0.0059	0.0059	0.0000	-0.0059	0.0029	0.0029	0.0000	0.0000	0.0000	0.0000	0.0000	0.0000
2.4628	0.0059	0.0059	0.0000	-0.0059	0.0029	0.0029	0.0000	0.0000	0.0000	0.0000	0.0000	0.0000
2.4662	0.0059	0.0059	0.0000	-0.0059	0.0029	0.0029	0.0000	0.0000	0.0000	0.0000	0.0000	0.0000
2.4696	0.0059	0.0059	0.0000	-0.0059	0.0029	0.0029	0.0000	0.0000	0.0000	0.0000	0.0000	0.0000
2.4730	0.0059	0.0059	0.0000	-0.0059	0.0029	0.0029	0.0000	0.0000	0.0000	0.0059	0.0000	0.0000
2.4764	0.0059	0.0059	0.0000	-0.0059	0.0029	0.0029	0.0000	0.0000	0.0000	0.0000	0.0000	0.0000
2.4797	0.0059	0.0059	0.0000	-0.0059	0.0029	0.0029	0.0000	0.0000	0.0000	0.0000	0.0000	0.0000
2.4831	0.0059	0.0059	0.0000	-0.0059	0.0029	0.0029	0.0000	0.0000	0.0000	0.0000	0.0000	0.0000
2.4865	0.0059	0.0059	0.0000	-0.0059	0.0029	0.0029	0.0000	0.0000	0.0000	0.0000	0.0000	0.0000
2.4899	0.0059	0.0059	0.0000	-0.0059	0.0029	0.0029	0.0000	0.0059	0.0000	0.0000	0.0000	0.0000
2.4932	0.0059	0.0059	0.0000	-0.0059	0.0029	0.0029	0.0000	0.0059	0.0000	0.0059	0.0000	0.0000
2.4966	0.0059	0.0059	0.0000	-0.0059	0.0029	0.0029	0.0000	0.0000	0.0000	0.0000	0.0000	0.0000
2.5000	0.0059	0.0059	0.0000	-0.0059	0.0029	0.0029	0.0000	0.0000	0.0000	0.0000	0.0000	0.0000
2.5034	0.0059	0.0059	0.0000	-0.0059	0.0029	0.0029	0.0000	0.0000	0.0059	0.0000	0.0000	0.0000
2.5068	0.0059	0.0059	0.0000	-0.0059	0.0029	0.0029	0.0000	0.0000	0.0117	0.0000	0.0000	0.0000
2.5101	0.0059	0.0059	0.0000	-0.0059	0.0029	0.0029	0.0000	0.0059	0.0117	0.0000	0.0000	0.0000
2.5135	0.0059	0.0059	0.0000	-0.0059	0.0029	0.0029	0.0000	0.0059	0.0117	0.0059	0.0000	0.0000
2.5169	0.0059	0.0059	0.0000	-0.0059	0.0029	0.0029	0.0000	0.0059	0.0117	0.0059	0.0059	0.0059
2.5203	0.0059	0.0059	0.0000	-0.0059	0.0029	0.0029	0.0000	0.0000	0.0117	0.0000	0.0117	0.0117
2.5236	0.0059	0.0059	0.0000	-0.0059	0.0029	0.0029	0.0000	0.0000	0.0117	0.0000	0.0176	0.0117
2.5270	0.0059	0.0059	0.0000	-0.0059	0.0029	0.0029	0.0000	0.0059	0.0117	0.0000	0.0117	0.0059
2.5304	0.0059	0.0059	0.0000	-0.0059	0.0029	0.0029	0.0000	0.0059	0.0117	0.0000	0.0117	0.0000
2.5338	0.0059	0.0059	0.0000	-0.0059	0.0029	0.0029	0.0000	0.0059	0.0117	0.0059	0.0117	0.0000
2.5372	0.0059	0.0059	0.0000	-0.0059	0.0029	0.0029	0.0000	0.0059	0.0176	0.0059	0.0117	0.0000
2.5405	0.0059	0.0059	0.0000	-0.0059	0.0029	0.0029	0.0000	0.0059	0.0117	0.0000	0.0176	0.0000
2.5439	0.0059	0.0059	0.0000	-0.0059	0.0029	0.0029	0.0000	0.0059	0.0117	0.0000	0.0176	0.0000
2.5473	0.0059	0.0059	0.0000	-0.0059	0.0029	0.0029	0.0000	0.0059	0.0117	0.0000	0.0117	0.0000
2.5507	0.0059	0.0059	0.0000	-0.0059	0.0029	0.0029	0.0000	0.0059	0.0117	0.0000	0.0059	0.0000
2.5541	0.0059	0.0000	-0.0059	-0.0029	0.0059	-0.0029	0.0000	0.0059	0.0117	0.0059	0.0000	0.0000
2.5574	0.0059	-0.0059	-0.0117	0.0000	0.0088	-0.0088	0.0000	0.0059	0.0176	0.0059	0.0000	0.0000
2.5608	0.0059	-0.0117	-0.0176	0.0029	0.0117	-0.0146	0.0000	0.0059	0.0117	0.0000	0.0000	0.0059
2.5642	0.0059	-0.0059	-0.0117	0.0000	0.0088	-0.0088	0.0000	0.0059	0.0117	0.0000	0.0000	0.0117
2.5676	0.0059	0.0000	-0.0059	-0.0029	0.0059	-0.0029	0.0000	0.0059	0.0117	0.0000	0.0000	0.0117
2.5709	0.0059	0.0059	0.0000	-0.0059	0.0029	0.0029	0.0000	0.0059	0.0117	0.0000	0.0000	0.0117
2.5743	0.0059	0.0059	0.0000	-0.0059	0.0029	0.0029	0.0000	0.0059	0.0117	0.0059	0.0000	0.0059
2.5777	0.0059	0.0059	0.0000	-0.0059	0.0029	0.0029	0.0000	0.0059	0.0176	0.0059	0.0000	0.0000
2.5811	0.0059	0.0059	0.0000	-0.0059	0.0029	0.0029	0.0000	0.0059	0.0117	0.0000	0.0000	0.0000
2.5845	0.0059	0.0059	0.0000	-0.0059	0.0029	0.0029	0.0000	0.0059	0.0117	0.0000	0.0000	0.0000
2.5878	0.0059	0.0059	0.0000	-0.0059	0.0029	0.0029	0.0000	0.0059	0.0117	0.0000	0.0000	0.0000
2.5912	0.0059	0.0000	-0.0059	-0.0029	0.0059	-0.0029	0.0000	0.0059	0.0117	0.0000	0.0000	0.0000
2.5946	0.0059	0.0000	-0.0059	-0.0029	0.0059	-0.0029	0.0000	0.0059	0.0059	0.0059	0.0000	0.0000
2.5980	0.0059	0.0059	0.0000	-0.0059	0.0029	0.0029	0.0000	0.0059	0.0000	0.0059	0.0000	0.0000
2.6014	0.0059	0.0059	0.0000	-0.0059	0.0029	0.0029	0.0000	0.0059	0.0000	0.0000	0.0000	0.0000
2.6047	0.0059	0.0000	-0.0059	-0.0029	0.0059	-0.0029	0.0000	0.0059	0.0000	0.0000	0.0000	0.0000
2.6081	0.0059	-0.0059	-0.0117	0.0000	0.0088	-0.0088	0.0000	0.0059	0.0000	0.0059	0.0000	0.0000
2.6115	0.0000	-0.0117	-0.0117	0.0059	0.0059	-0.0117	0.0000	0.0059	0.0000	0.0000	0.0000	0.0000
2.6149	-0.0059	-0.0117	-0.0059	0.0088	0.0000	-0.0088	0.0000	0.0059	0.0059	-0.0059	0.0059	0.0000
2.6182	-0.0059	-0.0059	0.0000	0.0059	-0.0029	-0.0029	0.0000	0.0059	0.0059	-0.0117	0.0000	-0.0059
2.6216	-0.0059	-0.0059	0.0000	0.0059	-0.0029	-0.0029	0.0000	0.0059	0.0059	-0.0117	-0.0059	-0.0117
2.6250	-0.0059	-0.0117	-0.0059	0.0088	0.0000	-0.0088	0.0000	0.0059	0.0000	-0.0117	-0.0117	-0.0117
2.6284	-0.0059	-0.0176	-0.0117	0.0117	0.0029	-0.0146	0.0000	0.0059	0.0000	-0.0117	-0.0117	-0.0117
2.6318	-0.0059	-0.0234	-0.0176	0.0146	0.0059	-0.0205	0.0000	0.0059	0.0000	-0.0117	-0.0117	-0.0117
2.6351	-0.0059	-0.0234	-0.0176	0.0146	0.0059	-0.0205	0.0000	0.0059	0.0059	-0.0059	-0.0117	-0.0117
2.6385	-0.0059	-0.0176	-0.0117	0.0117	0.0029	-0.0146	0.0000	0.0117	0.0059	-0.0059	-0.0117	-0.0117
2.6419	-0.0059	-0.0176	-0.0117	0.0117	0.0029	-0.0146	0.0059	0.0176	0.0059	-0.0059	-0.0117	-0.0117
2.6453	-0.0059	-0.0234	-0.0176	0.0146	0.0059	-0.0205	0.0117	0.0176	0.0000	-0.0117	-0.0059	-0.0059
2.6486	-0.0059	-0.0234	-0.0176	0.0146	0.0059	-0.0205	0.0117	0.0176	0.0000	-0.0117	0.0000	0.0000
2.6520	-0.0059	-0.0176	-0.0117	0.0117	0.0029	-0.0146	0.0117	0.0176	0.0000	-0.0117	0.0000	0.0000
2.6554	-0.0059	-0.0117	-0.0059	0.0088	0.0000	-0.0088	0.0059	0.0176	0.0059	-0.0059	0.0000	-0.0059
2.6588	-0.0059	-0.0059	0.0000	0.0059	-0.0029	-0.0029	0.0000	0.0176	0.0059	-0.0059	0.0000	-0.0117
2.6622	-0.0059	-0.0117	-0.0059	0.0088	0.0000	-0.0088	0.0000	0.0117	0.0059	-0.0059	0.0059	-0.0117
2.6655	-0.0059	-0.0176	-0.0117	0.0117	0.0029	-0.0146	0.0000	0.0059	0.0000	-0.0117	0.0000	-0.0117
2.6689	-0.0059	-0.0234	-0.0176	0.0146	0.0059	-0.0205	0.0000	0.0059	0.0000	-0.0117	-0.0059	-0.0117
2.6723	-0.0059	-0.0234	-0.0176	0.0146	0.0059	-0.0205	0.0000	0.0059	0.0059	-0.0117	-0.0117	-0.0117
2.6757	-0.0059	-0.0176	-0.0117	0.0117	0.0029	-0.0146	0.0000	0.0176	0.0059	-0.0059	-0.0117	-0.0117
2.6791	-0.0059	-0.0176	-0.0117	0.0117	0.0029	-0.0146	0.0000	0.0176	0.0059	-0.0059	-0.0117	-0.0117
2.6824	-0.0059	-0.0234	-0.0176	0.0146	0.0059	-0.0205	0.0000	0.0176	0.0059	-0.0117	-0.0117	-0.0117
2.6858	-0.0059	-0.0234	-0.0176	0.0146	0.0059	-0.0205	0.0000	0.0176	0.0059	-0.0117	-0.0117	-0.0117
2.6892	-0.0059	-0.0234	-0.0176	0.0146	0.0059	-0.0205	0.0000	0.0176	0.0000	-0.0059	-0.0117	-0.0117
2.6926	-0.0059	-0.0234	-0.0176	0.0146	0.0059	-0.0205	0.0000	0.0176	-0.0059	-0.0117	-0.0117	-0.0117
2.6959	-0.0059	-0.0234	-0.0176	0.0146	0.0059	-0.0205	0.0000	0.0059	-0.0059	-0.0176	-0.0117	-0.0117
2.6993	-0.0059	-0.0176	-0.0117	0.0117	0.0029	-0.0146	0.0000	0.0059	-0.0059	-0.0234	-0.0117	-0.0117
2.7027	-0.0059	-0.0234	-0.0176	0.0146	0.0059	-0.0205	0.0059	0.0117	-0.0059	-0.0234	-0.0117	-0.0117
2.7061	-0.0059	-0.0234	-0.0176	0.0146	0.0059	-0.0205	0.0117	0.0176	-0.0117	-0.0176	-0.0117	-0.0117
2.7095	-0.0059	-0.0234	-0.0176	0.0146	0.0059	-0.0205	0.0117	0.0176	-0.0117	-0.0117	-0.0117	-0.0117
2.7128	-0.0059	-0.0234	-0.0176	0.0146	0.0059	-0.0205	0.0117	0.0176	-0.0059	-0.0059	-0.0117	-0.0117
2.7162	-0.0059	-0.0234	-0.0176	0.0146	0.0059	-0.0205	0.0117	0.0176	-0.0059	-0.0059	-0.0117	-0.0117
2.7196	-0.0059	-0.0176	-0.0117	0.0117	0.0029	-0.0146	0.0117	0.0176	-0.0059	-0.0059	-0.0117	-0.0117
2.7230	-0.0059	-0.0117	-0.0059	0.0088	0.0000	-0.0088	0.0176	0.0176	-0.0059	-0.0059	-0.0117	-0.0117
2.7264	-0.0117	0.0000	0.0117	0.0059	-0.0117	0.0059	0.0234	0.0176	-0.0117	-0.0117	-0.0117	-0.0117
2.7297	-0.0117	0.0117	0.0234	0.0000	-0.0176	0.0176	0.0234	0.0176	-0.0117	-0.0117	-0.0117	-0.0117
2.7331	-0.0059	0.0234	0.0293	-0.0088	-0.0176	0.0264	0.0293	0.0293	-0.0059	-0.0059	-0.0117	-0.0117
2.7365	0.0117	0.0410	0.0293	-0.0264	-0.0088	0.0352	0.0352	0.0410	0.0000	0.0000	-0.0059	-0.0059
2.7399	0.0293	0.0586	0.0293	-0.0439	0.0000	0.0439	0.0352	0.0527	0.0059	0.0059	0.0000	0.0000
2.7432	0.0410	0.0762	0.0352	-0.0586	0.0029	0.0557	0.0352	0.0527	0.0117	0.0117	0.0059	0.0000
2.7466	0.0527	0.0879	0.0352	-0.0703	0.0088	0.0615	0.0293	0.0527	0.0176	0.0176	0.0000	0.0000
2.7500	0.0586	0.0938	0.0352	-0.0762	0.0117	0.0645	0.0234	0.0527	0.0117	0.0117	0.0000	0.0000
2.7534	0.0586	0.0996	0.0410	-0.0791	0.0088	0.0703	0.0176	0.0469	0.0059	0.0176	0.0000	0.0000
2.7568	0.0527	0.0938	0.0410	-0.0732	0.0059	0.0674	0.0117	0.0410	0.0000	0.0176	0.0000	0.0000
2.7601	0.0410	0.0879	0.0469	-0.0645	-0.0029	0.0674	0.0059	0.0293	-0.0059	0.0117	-0.0059	0.0000
2.7635	0.0293	0.0703	0.0410	-0.0498	-0.0059	0.0557	0.0000	0.0293	-0.0117	0.0059	-0.0117	-0.0059
2.7669	0.0234	0.0527	0.0293	-0.0381	-0.0029	0.0410	0.0000	0.0293	-0.0117	0.0000	-0.0176	-0.0117
2.7703	0.0293	0.0352	0.0059	-0.0322	0.0117	0.0205	0.0000	0.0293	-0.0059	0.0000	-0.0234	-0.0117
2.7736	0.0410	0.0176	-0.0234	-0.0293	0.0322	-0.0029	0.0000	0.0293	-0.0059	-0.0059	-0.0234	-0.0117
2.7770	0.0469	0.0000	-0.0469	-0.0234	0.0469	-0.0234	0.0000	0.0293	-0.0117	-0.0059	-0.0234	-0.0117
2.7804	0.0527	-0.0176	-0.0703	-0.0176	0.0615	-0.0439	0.0000	0.0293	-0.0176	-0.0059	-0.0176	-0.0117
2.7838	0.0410	-0.0352	-0.0762	-0.0029	0.0586	-0.0557	0.0000	0.0176	-0.0234	-0.0117	-0.0234	-0.0176
2.7872	0.0234	-0.0586	-0.0820	0.0176	0.0527	-0.0703	0.0000	0.0059	-0.0293	-0.0234	-0.0293	-0.0234
2.7905	0.0000	-0.0762	-0.0762	0.0381	0.0381	-0.0762	0.0000	0.0000	-0.0469	-0.0293	-0.0352	-0.0293
2.7939	-0.0293	-0.0938	-0.0645	0.0615	0.0176	-0.0791	0.0059	-0.0059	-0.0527	-0.0352	-0.0469	-0.0410
2.7973	-0.0469	-0.1055	-0.0586	0.0762	0.0059	-0.0820	0.0117	-0.0059	-0.0527	-0.0410	-0.0527	-0.0410
2.8007	-0.0645	-0.1113	-0.0469	0.0879	-0.0088	-0.0791	0.0117	-0.0059	-0.0527	-0.0410	-0.0586	-0.0469
2.8041	-0.0703	-0.1113	-0.0410	0.0908	-0.0146	-0.0762	0.0059	-0.0059	-0.0469	-0.0469	-0.0586	-0.0469
2.8074	-0.0645	-0.1055	-0.0410	0.0850	-0.0117	-0.0732	0.0000	-0.0059	-0.0410	-0.0469	-0.0527	-0.0410
2.8108	-0.0586	-0.1055	-0.0469	0.0820	-0.0059	-0.0762	0.0000	-0.0117	-0.0410	-0.0410	-0.0469	-0.0352
2.8142	-0.0527	-0.0996	-0.0469	0.0762	-0.0029	-0.0732	0.0000	-0.0176	-0.0469	-0.0352	-0.0410	-0.0352
2.8176	-0.0586	-0.0996	-0.0410	0.0791	-0.0088	-0.0703	0.0000	-0.0234	-0.0469	-0.0410	-0.0469	-0.0352
2.8209	-0.0645	-0.1055	-0.0410	0.0850	-0.0117	-0.0732	0.0059	-0.0176	-0.0469	-0.0410	-0.0527	-0.0410
2.8243	-0.0645	-0.1113	-0.0469	0.0879	-0.0088	-0.0791	0.0117	-0.0059	-0.0410	-0.0469	-0.0586	-0.0469
2.8277	-0.0703	-0.1172	-0.0469	0.0938	-0.0117	-0.0820	0.0176	0.0059	-0.0352	-0.0469	-0.0527	-0.0410
2.8311	-0.0703	-0.1113	-0.0410	0.0908	-0.0146	-0.0762	0.0234	0.0176	-0.0176	-0.0410	-0.0469	-0.0352
2.8345	-0.0645	-0.1055	-0.0410	0.0850	-0.0117	-0.0732	0.0293	0.0293	-0.0117	-0.0352	-0.0469	-0.0352
2.8378	-0.0586	-0.1055	-0.0469	0.0820	-0.0059	-0.0762	0.0352	0.0293	-0.0059	-0.0293	-0.0469	-0.0352
2.8412	-0.0527	-0.1113	-0.0586	0.0820	0.0029	-0.0850	0.0352	0.0293	-0.0059	-0.0234	-0.0469	-0.0352
2.8446	-0.0527	-0.1230	-0.0703	0.0879	0.0088	-0.0967	0.0410	0.0293	0.0000	-0.0176	-0.0410	-0.0410
2.8480	-0.0586	-0.1289	-0.0703	0.0938	0.0059	-0.0996	0.0469	0.0469	0.0176	-0.0117	-0.0352	-0.0469
2.8514	-0.0527	-0.1172	-0.0645	0.0850	0.0059	-0.0908	0.0586	0.0879	0.0527	0.0117	-0.0176	-0.0352
2.8547	-0.0117	-0.0527	-0.0410	0.0322	0.0146	-0.0469	0.0586	0.1523	0.1113	0.0645	0.0352	0.0000
2.8581	0.0645	0.0703	0.0059	-0.0674	0.0293	0.0381	0.0469	0.2168	0.1934	0.1523	0.1230	0.0703
2.8615	0.1934	0.2578	0.0645	-0.2256	0.0645	0.1611	0.0176	0.2754	0.2871	0.2754	0.2520	0.1699
2.8649	0.3574	0.4980	0.1406	-0.4277	0.1084	0.3193	-0.0352	0.2988	0.3691	0.4102	0.4102	0.2930
2.8682	0.5273	0.7617	0.2344	-0.6445	0.1465	0.4980	-0.1055	0.2578	0.4219	0.5566	0.5742	0.4336
2.8716	0.6680	1.0078	0.3398	-0.8379	0.1641	0.6738	-0.1875	0.1465	0.4277	0.6797	0.7148	0.5508
2.8750	0.7441	1.1836	0.4395	-0.9639	0.1523	0.8115	-0.2578	-0.0293	0.3633	0.7441	0.7969	0.6328
2.8784	0.7324	1.2539	0.5215	-0.9932	0.1055	0.8877	-0.3047	-0.2402	0.2461	0.7324	0.7910	0.6445
2.8818	0.6211	1.1953	0.5742	-0.9082	0.0234	0.8848	-0.3223	-0.4512	0.0820	0.6328	0.6914	0.5859
2.8851	0.4277	1.0020	0.5742	-0.7148	-0.0732	0.7881	-0.3164	-0.6270	-0.0879	0.4629	0.5156	0.4688
2.8885	0.1758	0.7148	0.5391	-0.4453	-0.1816	0.6270	-0.2813	-0.7383	-0.2578	0.2461	0.2871	0.3047
2.8919	-0.0645	0.3867	0.4512	-0.1611	-0.2578	0.4189	-0.2285	-0.7793	-0.3809	0.0234	0.0469	0.1289
2.8953	-0.2578	0.0645	0.3223	0.0967	-0.2900	0.1934	-0.1758	-0.7441	-0.4453	-0.1699	-0.1523	-0.0352
2.8986	-0.3809	-0.2051	0.1758	0.2930	-0.2783	-0.0146	-0.1289	-0.6621	-0.4512	-0.3105	-0.2988	-0.1523
2.9020	-0.4160	-0.3867	0.0293	0.4014	-0.2227	-0.1787	-0.1055	-0.5449	-0.4102	-0.3867	-0.3750	-0.2285
2.9054	-0.3809	-0.4746	-0.0938	0.4277	-0.1436	-0.2842	-0.0879	-0.4102	-0.3340	-0.3926	-0.3867	-0.2578
2.9088	-0.3047	-0.4922	-0.1875	0.3984	-0.0586	-0.3398	-0.0703	-0.2930	-0.2402	-0.3516	-0.3457	-0.2461
2.9122	-0.2109	-0.4570	-0.2461	0.3340	0.0176	-0.3516	-0.0527	-0.1875	-0.1523	-0.2871	-0.2813	-0.2109
2.9155	-0.1289	-0.3984	-0.2695	0.2637	0.0703	-0.3340	-0.0352	-0.0996	-0.0762	-0.2227	-0.2227	-0.1758
2.9189	-0.0762	-0.3340	-0.2578	0.2051	0.0908	-0.2959	-0.0117	-0.0293	-0.0176	-0.1699	-0.1758	-0.1406
2.9223	-0.0645	-0.2930	-0.2285	0.1787	0.0820	-0.2607	0.0234	0.0293	0.0176	-0.1406	-0.1465	-0.1230
2.9257	-0.0820	-0.2695	-0.1875	0.1758	0.0527	-0.2285	0.0586	0.0762	0.0410	-0.1230	-0.1406	-0.1172
2.9291	-0.0996	-0.2578	-0.1582	0.1787	0.0293	-0.2080	0.0820	0.1113	0.0469	-0.1172	-0.1348	-0.1172
2.9324	-0.1172	-0.2461	-0.1289	0.1816	0.0059	-0.1875	0.0938	0.1348	0.0527	-0.1172	-0.1289	-0.1172
2.9358	-0.1230	-0.2344	-0.1113	0.1787	-0.0059	-0.1729	0.0996	0.1465	0.0527	-0.1113	-0.1172	-0.1113
2.9392	-0.1113	-0.2168	-0.1055	0.1641	-0.0029	-0.1611	0.0938	0.1465	0.0527	-0.0996	-0.0996	-0.0996
2.9426	-0.0938	-0.1992	-0.1055	0.1465	0.0059	-0.1523	0.0879	0.1406	0.0527	-0.0879	-0.0879	-0.0879
2.9459	-0.0762	-0.1816	-0.1055	0.1289	0.0146	-0.1436	0.0820	0.1348	0.0527	-0.0762	-0.0762	-0.0762
2.9493	-0.0703	-0.1758	-0.1055	0.1230	0.0176	-0.1406	0.0820	0.1289	0.0469	-0.0703	-0.0703	-0.0762
2.9527	-0.0703	-0.1758	-0.1055	0.1230	0.0176	-0.1406	0.0820	0.1230	0.0410	-0.0645	-0.0703	-0.0703
2.9561	-0.0762	-0.1699	-0.0938	0.1230	0.0088	-0.1318	0.0820	0.1230	0.0410	-0.0645	-0.0703	-0.0586
2.9595	-0.0820	-0.1641	-0.0820	0.1230	0.0000	-0.1230	0.0820	0.1230	0.0410	-0.0645	-0.0703	-0.0586
2.9628	-0.0820	-0.1582	-0.0762	0.1201	-0.0029	-0.1172	0.0820	0.1289	0.0410	-0.0645	-0.0703	-0.0586
2.9662	-0.0820	-0.1582	-0.0762	0.1201	-0.0029	-0.1172	0.0820	0.1289	0.0410	-0.0703	-0.0645	-0.0586
2.9696	-0.0762	-0.1523	-0.0762	0.1143	0.0000	-0.1143	0.0762	0.1230	0.0410	-0.0645	-0.0586	-0.0586
2.9730	-0.0703	-0.1406	-0.0703	0.1055	0.0000	-0.1055	0.0703	0.1172	0.0352	-0.0586	-0.0527	-0.0527
2.9764	-0.0527	-0.1230	-0.0703	0.0879	0.0088	-0.0967	0.0645	0.1113	0.0293	-0.0527	-0.0469	-0.0469
2.9797	-0.0410	-0.1172	-0.0762	0.0791	0.0176	-0.0967	0.0586	0.1113	0.0293	-0.0469	-0.0410	-0.0469
2.9831	-0.0410	-0.1113	-0.0703	0.0762	0.0146	-0.0908	0.0645	0.1055	0.0234	-0.0410	-0.0410	-0.0469
2.9865	-0.0469	-0.1055	-0.0586	0.0762	0.0059	-0.0820	0.0703	0.0996	0.0176	-0.0469	-0.0469	-0.0469
2.9899	-0.0469	-0.1055	-0.0586	0.0762	0.0059	-0.0820	0.0703	0.0996	0.0117	-0.0469	-0.0469	-0.0469
2.9932	-0.0469	-0.1055	-0.0586	0.0762	0.0059	-0.0820	0.0645	0.1055	0.0176	-0.0469	-0.0410	-0.0410
2.9966	-0.0410	-0.0996	-0.0586	0.0703	0.0088	-0.0791	0.0586	0.1055	0.0176	-0.0410	-0.0352	-0.0352
3.0000	-0.0410	-0.0879	-0.0469	0.0645	0.0029	-0.0674	0.0586	0.0996	0.0176	-0.0352	-0.0293	-0.0352
3.0034	-0.0352	-0.0762	-0.0410	0.0557	0.0029	-0.0586	0.0527	0.0938	0.0176	-0.0293	-0.0293	-0.0293
3.0068	-0.0293	-0.0703	-0.0410	0.0498	0.0059	-0.0557	0.0469	0.0879	0.0234	-0.0234	-0.0234	-0.0234
3.0101	-0.0234	-0.0703	-0.0469	0.0469	0.0117	-0.0586	0.0469	0.0879	0.0293	-0.0234	-0.0234	-0.0234
3.0135	-0.0176	-0.0586	-0.0410	0.0381	0.0117	-0.0498	0.0469	0.0879	0.0293	-0.0176	-0.0234	-0.0234
3.0169	-0.0234	-0.0586	-0.0352	0.0410	0.0059	-0.0469	0.0527	0.0938	0.0293	-0.0176	-0.0234	-0.0234
3.0203	-0.0234	-0.0586	-0.0352	0.0410	0.0059	-0.0469	0.0527	0.0996	0.0352	-0.0176	-0.0234	-0.0293
3.0236	0.0117	0.0059	-0.0059	-0.0088	0.0088	0.0000	0.0352	0.1113	0.0469	0.0117	0.0117	0.0000
3.0270	0.0879	0.1230	0.0352	-0.1055	0.0264	0.0791	0.0059	0.1289	0.0645	0.0645	0.0645	0.0527
3.0304	0.1230	0.1875	0.0645	-0.1553	0.0293	0.1260	-0.0176	0.1289	0.0762	0.0879	0.0879	0.0820
3.0338	0.1230	0.1934	0.0703	-0.1582	0.0264	0.1318	-0.0176	0.1230	0.0762	0.0879	0.0879	0.0820
3.0372	0.1230	0.1992	0.0762	-0.1611	0.0234	0.1377	-0.0234	0.1172	0.0762	0.0820	0.0820	0.0820
3.0405	0.1289	0.2051	0.0762	-0.1670	0.0264	0.1406	-0.0234	0.1113	0.0703	0.0879	0.0879	0.0820
3.0439	0.1348	0.2109	0.0762	-0.1729	0.0293	0.1436	-0.0234	0.1055	0.0645	0.0879	0.0879	0.0820
3.0473	0.1289	0.2109	0.0820	-0.1699	0.0234	0.1465	-0.0234	0.0996	0.0645	0.0820	0.0820	0.0820
3.0507	0.1230	0.2109	0.0879	-0.1670	0.0176	0.1494	-0.0234	0.0879	0.0586	0.0820	0.0820	0.0820
3.0541	0.1172	0.2109	0.0938	-0.1641	0.0117	0.1523	-0.0234	0.0762	0.0527	0.0762	0.0820	0.0820
3.0574	0.1172	0.2051	0.0879	-0.1611	0.0146	0.1465	-0.0234	0.0703	0.0410	0.0762	0.0762	0.0820
3.0608	0.1113	0.1992	0.0879	-0.1553	0.0117	0.1436	-0.0234	0.0645	0.0352	0.0703	0.0703	0.0762
3.0642	0.0996	0.1934	0.0938	-0.1465	0.0029	0.1436	-0.0234	0.0586	0.0293	0.0645	0.0645	0.0703
3.0676	0.0820	0.1758	0.0938	-0.1289	-0.0059	0.1348	-0.0234	0.0469	0.0234	0.0586	0.0586	0.0703
3.0709	0.0762	0.1523	0.0762	-0.1143	0.0000	0.1143	-0.0234	0.0293	0.0176	0.0469	0.0527	0.0586
3.0743	0.0645	0.1406	0.0762	-0.1025	-0.0059	0.1084	-0.0234	0.0117	0.0059	0.0410	0.0469	0.0527
3.0777	0.0527	0.1230	0.0703	-0.0879	-0.0088	0.0967	-0.0176	-0.0059	-0.0059	0.0352	0.0410	0.0469
3.0811	0.0410	0.0996	0.0586	-0.0703	-0.0088	0.0791	-0.0117	-0.0176	-0.0117	0.0293	0.0293	0.0352
3.0845	0.0293	0.0703	0.0410	-0.0498	-0.0059	0.0557	-0.0117	-0.0234	-0.0176	0.0176	0.0176	0.0234
3.0878	0.0117	0.0469	0.0352	-0.0293	-0.0117	0.0410	-0.0117	-0.0410	-0.0293	0.0117	0.0117	0.0117
3.0912	0.0000	0.0234	0.0234	-0.0117	-0.0117	0.0234	-0.0117	-0.0527	-0.0352	0.0000	0.0000	0.0000
3.0946	-0.0176	0.0000	0.0176	0.0088	-0.0176	0.0088	-0.0117	-0.0645	-0.0410	-0.0117	-0.0117	-0.0059
3.0980	-0.0293	-0.0234	0.0059	0.0264	-0.0176	-0.0088	-0.0117	-0.0703	-0.0469	-0.0176	-0.0234	-0.0117
3.1014	-0.0410	-0.0410	0.0000	0.0410	-0.0205	-0.0205	-0.0059	-0.0762	-0.0527	-0.0293	-0.0352	-0.0176
3.1047	-0.0527	-0.0586	-0.0059	0.0557	-0.0234	-0.0322	0.0000	-0.0820	-0.0586	-0.0352	-0.0410	-0.0234
3.1081	-0.0586	-0.0820	-0.0234	0.0703	-0.0176	-0.0527	0.0000	-0.0879	-0.0645	-0.0410	-0.0469	-0.0352
3.1115	-0.0645	-0.0938	-0.0293	0.0791	-0.0176	-0.0615	0.0000	-0.0879	-0.0703	-0.0469	-0.0469	-0.0352
3.1149	-0.0703	-0.0996	-0.0293	0.0850	-0.0205	-0.0645	0.0000	-0.0879	-0.0645	-0.0469	-0.0527	-0.0352
3.1182	-0.0703	-0.0996	-0.0293	0.0850	-0.0205	-0.0645	0.0000	-0.0938	-0.0645	-0.0527	-0.0586	-0.0352
3.1216	-0.0762	-0.1055	-0.0293	0.0908	-0.0234	-0.0674	0.0000	-0.0996	-0.0645	-0.0527	-0.0586	-0.0410
3.1250	-0.0820	-0.1113	-0.0293	0.0967	-0.0264	-0.0703	0.0000	-0.0996	-0.0645	-0.0586	-0.0586	-0.0469
3.1284	-0.0762	-0.1172	-0.0410	0.0967	-0.0176	-0.0791	0.0000	-0.0996	-0.0586	-0.0586	-0.0586	-0.0469
3.1318	-0.0703	-0.1172	-0.0469	0.0938	-0.0117	-0.0820	0.0000	-0.0938	-0.0527	-0.0586	-0.0586	-0.0469
3.1351	-0.0645	-0.1055	-0.0410	0.0850	-0.0117	-0.0732	0.0000	-0.0879	-0.0527	-0.0586	-0.0586	-0.0469
3.1385	-0.0645	-0.0996	-0.0352	0.0820	-0.0146	-0.0674	0.0000	-0.0820	-0.0527	-0.0527	-0.0527	-0.0410
3.1419	-0.0645	-0.0996	-0.0352	0.0820	-0.0146	-0.0674	0.0000	-0.0879	-0.0527	-0.0527	-0.0469	-0.0352
3.1453	-0.0703	-0.1055	-0.0352	0.0879	-0.0176	-0.0703	0.0000	-0.0820	-0.0527	-0.0469	-0.0469	-0.0352
3.1486	-0.0645	-0.1055	-0.0410	0.0850	-0.0117	-0.0732	-0.0059	-0.0762	-0.0469	-0.0469	-0.0469	-0.0352
3.1520	-0.0586	-0.0996	-0.0410	0.0791	-0.0088	-0.0703	-0.0117	-0.0762	-0.0410	-0.0469	-0.0469	-0.0352
3.1554	-0.0527	-0.0938	-0.0410	0.0732	-0.0059	-0.0674	-0.0117	-0.0703	-0.0410	-0.0469	-0.0469	-0.0352
3.1588	-0.0527	-0.0938	-0.0410	0.0732	-0.0059	-0.0674	-0.0059	-0.0645	-0.0410	-0.0410	-0.0469	-0.0352
3.1622	-0.0527	-0.0879	-0.0352	0.0703	-0.0088	-0.0615	0.0000	-0.0586	-0.0410	-0.0410	-0.0469	-0.0352
3.1655	-0.0527	-0.0820	-0.0293	0.0674	-0.0117	-0.0557	0.0000	-0.0586	-0.0352	-0.0410	-0.0410	-0.0352
3.1689	-0.0469	-0.0820	-0.0352	0.0645	-0.0059	-0.0586	0.0000	-0.0527	-0.0293	-0.0352	-0.0352	-0.0352
3.1723	-0.0469	-0.0820	-0.0352	0.0645	-0.0059	-0.0586	0.0000	-0.0527	-0.0293	-0.0352	-0.0352	-0.0352
3.1757	-0.0469	-0.0762	-0.0293	0.0615	-0.0088	-0.0527	0.0000	-0.0527	-0.0293	-0.0293	-0.0352	-0.0293
3.1791	-0.0410	-0.0703	-0.0293	0.0557	-0.0059	-0.0498	0.0000	-0.0469	-0.0293	-0.0293	-0.0352	-0.0234
3.1824	-0.0352	-0.0703	-0.0352	0.0527	0.0000	-0.0527	0.0000	-0.0410	-0.0293	-0.0293	-0.0293	-0.0234
3.1858	-0.0293	-0.0645	-0.0352	0.0469	0.0029	-0.0498	0.0000	-0.0410	-0.0293	-0.0352	-0.0234	-0.0234
3.1892	-0.0352	-0.0586	-0.0234	0.0469	-0.0059	-0.0410	0.0000	-0.0410	-0.0234	-0.0293	-0.0234	-0.0234
3.1926	-0.0352	-0.0469	-0.0117	0.0410	-0.0117	-0.0293	-0.0059	-0.0352	-0.0176	-0.0234	-0.0234	-0.0234
3.1959	-0.0293	-0.0410	-0.0117	0.0352	-0.0088	-0.0264	-0.0117	-0.0293	-0.0176	-0.0176	-0.0234	-0.0234
3.1993	-0.0234	-0.0352	-0.0117	0.0293	-0.0059	-0.0234	-0.0117	-0.0234	-0.0176	-0.0176	-0.0176	-0.0234
3.2027	-0.0176	-0.0293	-0.0117	0.0234	-0.0029	-0.0205	-0.0059	-0.0234	-0.0176	-0.0234	-0.0117	-0.0176
3.2061	-0.0176	-0.0234	-0.0059	0.0205	-0.0059	-0.0146	0.0000	-0.0176	-0.0176	-0.0176	-0.0117	-0.0117
3.2095	-0.0234	-0.0234	0.0000	0.0234	-0.0117	-0.0117	0.0000	-0.0117	-0.0176	-0.0117	-0.0117	-0.0117
3.2128	-0.0234	-0.0234	0.0000	0.0234	-0.0117	-0.0117	0.0000	-0.0059	-0.0117	-0.0117	-0.0117	-0.0117
3.2162	-0.0176	-0.0234	-0.0059	0.0205	-0.0059	-0.0146	0.0000	0.0000	-0.0059	-0.0059	-0.0117	-0.0117
3.2196	-0.0176	-0.0234	-0.0059	0.0205	-0.0059	-0.0146	0.0000	0.0000	-0.0059	-0.0059	-0.0117	-0.0117
3.2230	-0.0234	-0.0176	0.0059	0.0205	-0.0146	-0.0059	0.0000	-0.0059	-0.0059	-0.0059	-0.0117	-0.0117
3.2264	-0.0176	-0.0117	0.0059	0.0146	-0.0117	-0.0029	0.0000	-0.0059	-0.0059	-0.0117	-0.0117	-0.0117
3.2297	-0.0117	-0.0059	0.0059	0.0088	-0.0088	0.0000	0.0000	-0.0059	-0.0059	-0.0117	-0.0117	-0.0117
3.2331	-0.0117	0.0000	0.0117	0.0059	-0.0117	0.0059	0.0000	-0.0059	-0.0059	-0.0117	-0.0059	-0.0059
3.2365	-0.0117	0.0000	0.0117	0.0059	-0.0117	0.0059	0.0000	-0.0059	-0.0059	-0.0117	0.0000	0.0000
3.2399	-0.0059	0.0000	0.0059	0.0029	-0.0059	0.0029	0.0000	-0.0059	-0.0059	-0.0059	0.0000	0.0000
3.2432	0.0000	0.0059	0.0059	-0.0029	-0.0029	0.0059	0.0000	0.0000	0.0000	0.0000	0.0000	0.0000
3.2466	0.0059	0.0117	0.0059	-0.0088	0.0000	0.0088	0.0000	0.0059	0.0059	0.0000	0.0000	0.0000
3.2500	0.0000	0.0117	0.0117	-0.0059	-0.0059	0.0117	0.0000	0.0059	0.0059	0.0000	0.0000	0.0000
3.2534	0.0000	0.0117	0.0117	-0.0059	-0.0059	0.0117	0.0000	0.0059	0.0059	0.0000	0.0059	0.0000
3.2568	0.0059	0.0117	0.0059	-0.0088	0.0000	0.0088	0.0000	0.0059	0.0117	0.0059	0.0117	0.0000
3.2601	0.0059	0.0117	0.0059	-0.0088	0.0000	0.0088	0.0000	0.0059	0.0176	0.0059	0.0117	0.0000
3.2635	0.0059	0.0117	0.0059	-0.0088	0.0000	0.0088	0.0000	0.0059	0.0176	0.0000	0.0117	0.0000
3.2669	0.0000	0.0117	0.0117	-0.0059	-0.0059	0.0117	0.0000	0.0059	0.0176	0.0000	0.0117	0.0000
3.2703	0.0000	0.0117	0.0117	-0.0059	-0.0059	0.0117	0.0000	0.0059	0.0176	0.0000	0.0117	0.0000
3.2736	0.0000	0.0117	0.0117	-0.0059	-0.0059	0.0117	0.0000	0.0059	0.0176	0.0000	0.0059	0.0000
3.2770	0.0000	0.0117	0.0117	-0.0059	-0.0059	0.0117	0.0000	0.0059	0.0176	0.0000	0.0117	0.0000
3.2804	0.0059	0.0117	0.0059	-0.0088	0.0000	0.0088	0.0000	0.0059	0.0176	0.0059	0.0117	0.0117
3.2838	0.0117	0.0117	0.0000	-0.0117	0.0059	0.0059	0.0000	0.0059	0.0176	0.0000	0.0117	0.0117
3.2872	0.0117	0.0117	0.0000	-0.0117	0.0059	0.0059	0.0000	0.0059	0.0176	0.0000	0.0117	0.0117
3.2905	0.0117	0.0117	0.0000	-0.0117	0.0059	0.0059	0.0000	0.0059	0.0176	0.0000	0.0117	0.0117
3.2939	0.0117	0.0117	0.0000	-0.0117	0.0059	0.0059	0.0000	0.0059	0.0176	0.0000	0.0117	0.0059
3.2973	0.0176	0.0117	-0.0059	-0.0146	0.0117	0.0029	0.0000	0.0059	0.0176	0.0000	0.0117	0.0000
3.3007	0.0117	0.0117	0.0000	-0.0117	0.0059	0.0059	0.0000	0.0059	0.0117	0.0000	0.0117	0.0000
3.3041	0.0059	0.0059	0.0000	-0.0059	0.0029	0.0029	0.0000	0.0059	0.0059	0.0000	0.0117	0.0000
3.3074	0.0000	0.0000	0.0000	0.0000	0.0000	0.0000	0.0000	0.0059	0.0059	0.0000	0.0117	0.0000
3.3108	0.0000	0.0000	0.0000	0.0000	0.0000	0.0000	0.0000	0.0059	0.0059	0.0000	0.0117	0.0000
3.3142	0.0000	0.0000	0.0000	0.0000	0.0000	0.0000	0.0000	0.0059	0.0059	0.0000	0.0117	0.0000
3.3176	0.0000	0.0000	0.0000	0.0000	0.0000	0.0000	0.0000	0.0059	0.0059	0.0000	0.0059	0.0000
3.3209	0.0059	0.0000	-0.0059	-0.0029	0.0059	-0.0029	0.0000	0.0059	0.0059	0.0000	0.0000	0.0000
3.3243	0.0000	0.0000	0.0000	0.0000	0.0000	0.0000	0.0000	0.0059	0.0059	0.0000	0.0000	0.0000
3.3277	0.0000	0.0000	0.0000	0.0000	0.0000	0.0000	0.0000	0.0059	0.0059	0.0000	0.0000	0.0000
3.3311	0.0059	0.0000	-0.0059	-0.0029	0.0059	-0.0029	0.0000	0.0059	0.0000	0.0000	0.0000	0.0000
3.3345	0.0117	0.0000	-0.0117	-0.0059	0.0117	-0.0059	0.0000	0.0059	-0.0059	0.0000	0.0059	0.0000
3.3378	0.0176	0.0000	-0.0176	-0.0088	0.0176	-0.0088	0.0000	0.0059	-0.0117	0.0000	0.0117	0.0000
3.3412	0.0176	0.0000	-0.0176	-0.0088	0.0176	-0.0088	0.0000	0.0059	-0.0117	0.0000	0.0117	0.0000
3.3446	0.0117	0.0000	-0.0117	-0.0059	0.0117	-0.0059	0.0000	0.0059	-0.0117	0.0000	0.0117	0.0000
3.3480	0.0117	0.0000	-0.0117	-0.0059	0.0117	-0.0059	0.0000	0.0059	-0.0059	0.0000	0.0117	0.0000
3.3514	0.0117	0.0000	-0.0117	-0.0059	0.0117	-0.0059	0.0000	0.0059	0.0000	0.0000	0.0059	0.0000
3.3547	0.0059	0.0000	-0.0059	-0.0029	0.0059	-0.0029	0.0000	0.0059	0.0059	0.0000	0.0000	-0.0059
3.3581	0.0000	-0.0059	-0.0059	0.0029	0.0029	-0.0059	0.0000	0.0059	0.0059	0.0000	0.0000	-0.0117
3.3615	0.0000	0.0000	0.0000	0.0000	0.0000	0.0000	0.0000	0.0059	0.0059	0.0000	0.0000	-0.0117
3.3649	0.0000	0.0000	0.0000	0.0000	0.0000	0.0000	0.0000	0.0059	0.0000	0.0000	0.0000	-0.0117
3.3682	0.0000	0.0000	0.0000	0.0000	0.0000	0.0000	0.0000	0.0059	-0.0059	0.0000	0.0000	-0.0117
3.3716	0.0000	0.0000	0.0000	0.0000	0.0000	0.0000	0.0000	0.0059	-0.0117	0.0000	0.0000	-0.0117
3.3750	0.0000	0.0000	0.0000	0.0000	0.0000	0.0000	0.0000	0.0059	-0.0059	0.0000	0.0000	-0.0117
3.3784	0.0000	0.0000	0.0000	0.0000	0.0000	0.0000	0.0000	0.0059	0.0000	0.0000	0.0000	0.0000
3.3818	0.0000	0.0000	0.0000	0.0000	0.0000	0.0000	0.0000	0.0059	0.0059	0.0000	0.0000	0.0000
3.3851	0.0000	0.0000	0.0000	0.0000	0.0000	0.0000	0.0000	0.0059	0.0059	0.0000	0.0000	0.0000
3.3885	0.0000	0.0000	0.0000	0.0000	0.0000	0.0000	0.0000	0.0059	0.0059	0.0000	0.0059	0.0000
3.3919	0.0000	0.0000	0.0000	0.0000	0.0000	0.0000	0.0000	0.0059	0.0059	0.0000	0.0117	0.0000
3.3953	0.0000	0.0000	0.0000	0.0000	0.0000	0.0000	0.0000	0.0059	0.0059	0.0000	0.0117	0.0000
3.3986	0.0000	0.0000	0.0000	0.0000	0.0000	0.0000	0.0000	0.0059	0.0000	0.0059	0.0117	0.0000
3.4020	0.0000	0.0000	0.0000	0.0000	0.0000	0.0000	0.0000	0.0059	0.0000	0.0117	0.0117	0.0000
3.4054	0.0000	0.0000	0.0000	0.0000	0.0000	0.0000	0.0000	0.0059	0.0059	0.0117	0.0059	0.0000
3.4088	0.0000	0.0000	0.0000	0.0000	0.0000	0.0000	0.0000	0.0059	0.0059	0.0059	0.0000	0.0000
3.4122	0.0000	0.0000	0.0000	0.0000	0.0000	0.0000	0.0000	0.0059	0.0059	0.0000	0.0000	0.0000
3.4155	0.0000	0.0000	0.0000	0.0000	0.0000	0.0000	0.0000	0.0059	0.0000	0.0000	0.0000	0.0000
3.4189	0.0000	0.0000	0.0000	0.0000	0.0000	0.0000	0.0000	0.0059	0.0000	0.0000	0.0000	0.0000
3.4223	0.0000	-0.0059	-0.0059	0.0029	0.0029	-0.0059	0.0000	0.0059	0.0000	0.0000	0.0000	0.0000
3.4257	0.0000	-0.0059	-0.0059	0.0029	0.0029	-0.0059	0.0000	0.0059	0.0000	0.0000	0.0000	0.0000
3.4291	0.0000	0.0000	0.0000	0.0000	0.0000	0.0000	0.0000	0.0059	0.0000	0.0000	0.0000	0.0000
3.4324	0.0000	0.0000	0.0000	0.0000	0.0000	0.0000	0.0000	0.0059	0.0059	0.0000	0.0000	0.0000
3.4358	0.0000	0.0000	0.0000	0.0000	0.0000	0.0000	0.0000	0.0059	0.0117	0.0000	0.0000	0.0000
3.4392	0.0000	0.0000	0.0000	0.0000	0.0000	0.0000	0.0000	0.0059	0.0176	0.0000	0.0000	0.0000
3.4426	0.0000	0.0000	0.0000	0.0000	0.0000	0.0000	0.0000	0.0059	0.0176	0.0000	0.0000	0.0000
3.4459	0.0000	0.0000	0.0000	0.0000	0.0000	0.0000	0.0000	0.0059	0.0117	0.0000	0.0059	0.0000
3.4493	0.0000	0.0000	0.0000	0.0000	0.0000	0.0000	0.0000	0.0059	0.0176	0.0000	0.0059	0.0000
3.4527	0.0000	0.0000	0.0000	0.0000	0.0000	0.0000	0.0000	0.0059	0.0176	0.0000	0.0059	0.0000
3.4561	0.0000	0.0000	0.0000	0.0000	0.0000	0.0000	0.0000	0.0059	0.0117	0.0000	0.0000	0.0000
3.4595	0.0000	0.0000	0.0000	0.0000	0.0000	0.0000	0.0000	0.0059	0.0117	0.0000	0.0000	0.0000
3.4628	0.0000	0.0000	0.0000	0.0000	0.0000	0.0000	0.0000	0.0059	0.0117	0.0000	0.0000	0.0000
3.4662	0.0000	0.0000	0.0000	0.0000	0.0000	0.0000	0.0000	0.0059	0.0176	0.0000	0.0000	0.0000
3.4696	0.0000	0.0000	0.0000	0.0000	0.0000	0.0000	0.0000	0.0059	0.0117	0.0000	0.0000	0.0000
3.4730	0.0000	0.0000	0.0000	0.0000	0.0000	0.0000	0.0000	0.0059	0.0059	0.0000	0.0000	0.0000
3.4764	0.0000	0.0000	0.0000	0.0000	0.0000	0.0000	0.0000	0.0059	0.0000	0.0000	0.0000	0.0000
3.4797	0.0000	0.0000	0.0000	0.0000	0.0000	0.0000	0.0000	0.0059	0.0000	0.0000	0.0000	0.0000
3.4831	0.0000	0.0000	0.0000	0.0000	0.0000	0.0000	0.0000	0.0059	0.0000	0.0000	0.0000	0.0000
3.4865	0.0000	0.0000	0.0000	0.0000	0.0000	0.0000	0.0000	0.0059	0.0000	0.0000	0.0000	0.0000
3.4899	0.0000	0.0000	0.0000	0.0000	0.0000	0.0000	0.0000	0.0059	0.0000	0.0000	0.0000	0.0000
3.4932	0.0000	0.0000	0.0000	0.0000	0.0000	0.0000	0.0000	0.0059	0.0000	0.0000	0.0000	0.0000
3.4966	0.0000	0.0000	0.0000	0.0000	0.0000	0.0000	0.0000	0.0059	0.0000	0.0000	0.0000	0.0000
3.5000	0.0000	0.0000	0.0000	0.0000	0.0000	0.0000	0.0000	0.0059	0.0000	0.0000	0.0000	0.0000
3.5034	0.0000	0.0000	0.0000	0.0000	0.0000	0.0000	0.0000	0.0059	0.0000	0.0000	0.0000	0.0000
3.5068	0.0000	0.0000	0.0000	0.0000	0.0000	0.0000	0.0000	0.0059	0.0000	0.0000	0.0000	0.0000
3.5101	0.0000	0.0000	0.0000	0.0000	0.0000	0.0000	0.0000	0.0059	0.0000	0.0000	0.0000	0.0000
3.5135	0.0000	0.0000	0.0000	0.0000	0.0000	0.0000	0.0000	0.0059	0.0000	0.0000	0.0000	0.0000
3.5169	0.0000	0.0000	0.0000	0.0000	0.0000	0.0000	0.0000	0.0059	0.0000	0.0000	0.0000	0.0000
3.5203	0.0000	0.0000	0.0000	0.0000	0.0000	0.0000	0.0000	0.0059	0.0000	0.0000	0.0000	0.0000
3.5236	0.0000	0.0000	0.0000	0.0000	0.0000	0.0000	0.0000	0.0059	0.0000	0.0000	0.0000	0.0000
3.5270	0.0000	0.0000	0.0000	0.0000	0.0000	0.0000	0.0000	0.0059	0.0000	0.0000	0.0000	0.0000
3.5304	0.0000	0.0000	0.0000	0.0000	0.0000	0.0000	0.0000	0.0059	0.0000	0.0000	0.0000	0.0000
3.5338	0.0000	0.0000	0.0000	0.0000	0.0000	0.0000	0.0000	0.0059	0.0000	0.0000	0.0000	0.0000
3.5372	0.0000	0.0000	0.0000	0.0000	0.0000	0.0000	0.0000	0.0059	0.0000	0.0000	0.0000	0.0000
3.5405	0.0000	0.0000	0.0000	0.0000	0.0000	0.0000	0.0000	0.0059	0.0000	0.0000	0.0000	0.0000
3.5439	0.0000	0.0000	0.0000	0.0000	0.0000	0.0000	0.0000	0.0059	0.0000	0.0000	0.0000	0.0000
3.5473	0.0000	0.0000	0.0000	0.0000	0.0000	0.0000	0.0000	0.0059	0.0000	0.0000	0.0000	0.0000
3.5507	0.0000	0.0000	0.0000	0.0000	0.0000	0.0000	0.0000	0.0059	0.0000	0.0000	0.0000	0.0000
3.5541	0.0000	0.0000	0.0000	0.0000	0.0000	0.0000	0.0000	0.0059	0.0000	0.0000	0.0000	0.0000
3.5574	0.0000	0.0000	0.0000	0.0000	0.0000	0.0000	0.0000	0.0059	0.0000	0.0000	0.0000	0.0000
3.5608	0.0000	0.0000	0.0000	0.0000	0.0000	0.0000	0.0000	0.0059	0.0000	0.0000	0.0000	0.0000
3.5642	0.0000	0.0000	0.0000	0.0000	0.0000	0.0000	0.0000	0.0059	0.0000	0.0000	0.0000	0.0000
3.5676	0.0000	0.0000	0.0000	0.0000	0.0000	0.0000	0.0000	0.0059	0.0000	0.0000	0.0000	0.0000
3.5709	0.0000	0.0000	0.0000	0.0000	0.0000	0.0000	0.0000	0.0059	0.0000	0.0000	0.0000	0.0000
3.5743	0.0000	0.0000	0.0000	0.0000	0.0000	0.0000	0.0000	0.0059	0.0000	0.0000	0.0000	0.0000
3.5777	0.0000	0.0000	0.0000	0.0000	0.0000	0.0000	0.0000	0.0059	0.0000	0.0000	0.0000	0.0000
3.5811	0.0000	0.0000	0.0000	0.0000	0.0000	0.0000	0.0000	0.0059	0.0000	0.0000	0.0000	0.0000
3.5845	0.0000	0.0000	0.0000	0.0000	0.0000	0.0000	0.0000	0.0059	0.0000	0.0000	0.0000	0.0000
3.5878	0.0000	0.0000	0.0000	0.0000	0.0000	0.0000	0.0000	0.0059	0.0000	0.0000	0.0000	0.0000
3.5912	0.0000	0.0000	0.0000	0.0000	0.0000	0.0000	0.0000	0.0059	0.0000	0.0000	0.0000	0.0000
3.5946	0.0000	0.0000	0.0000	0.0000	0.0000	0.0000	0.0000	0.0059	0.0000	0.0000	0.0000	0.0000
3.5980	0.0000	0.0000	0.0000	0.0000	0.0000	0.0000	-0.0059	0.0059	0.0000	0.0000	0.0000	0.0000
3.6014	0.0000	0.0000	0.0000	0.0000	0.0000	0.0000	-0.0117	0.0059	0.0000	0.0000	0.0000	0.0000
3.6047	0.0000	0.0000	0.0000	0.0000	0.0000	0.0000	-0.0059	0.0059	0.0000	0.0000	0.0000	0.0000
3.6081	-0.0059	0.0000	0.0059	0.0029	-0.0059	0.0029	0.0000	0.0059	0.0000	0.0000	0.0000	0.0000
3.6115	-0.0117	-0.0059	0.0059	0.0088	-0.0088	0.0000	0.0000	0.0059	0.0000	0.0000	-0.0059	0.0000
3.6149	-0.0117	-0.0117	0.0000	0.0117	-0.0059	-0.0059	0.0000	0.0059	0.0000	-0.0059	-0.0117	0.0000
3.6182	-0.0117	-0.0117	0.0000	0.0117	-0.0059	-0.0059	0.0000	0.0059	0.0000	-0.0117	-0.0117	0.0000
3.6216	-0.0117	-0.0117	0.0000	0.0117	-0.0059	-0.0059	0.0059	0.0059	0.0000	-0.0117	-0.0117	-0.0059
3.6250	-0.0117	-0.0176	-0.0059	0.0146	-0.0029	-0.0117	0.0117	0.0059	0.0000	-0.0117	-0.0117	-0.0117
3.6284	-0.0117	-0.0234	-0.0117	0.0176	0.0000	-0.0176	0.0117	0.0059	-0.0059	-0.0117	-0.0117	-0.0117
3.6318	-0.0117	-0.0234	-0.0117	0.0176	0.0000	-0.0176	0.0117	0.0059	0.0000	-0.0117	-0.0117	-0.0117
3.6351	-0.0117	-0.0234	-0.0117	0.0176	0.0000	-0.0176	0.0117	0.0117	0.0000	-0.0117	-0.0117	0.0000
3.6385	-0.0117	-0.0234	-0.0117	0.0176	0.0000	-0.0176	0.0059	0.0176	0.0000	-0.0117	-0.0117	0.0000
3.6419	-0.0117	-0.0176	-0.0059	0.0146	-0.0029	-0.0117	0.0000	0.0176	0.0000	-0.0117	-0.0117	0.0000
3.6453	-0.0117	-0.0117	0.0000	0.0117	-0.0059	-0.0059	0.0000	0.0176	0.0000	-0.0117	-0.0117	0.0000
3.6486	-0.0117	-0.0117	0.0000	0.0117	-0.0059	-0.0059	0.0000	0.0176	0.0000	-0.0117	-0.0117	0.0000
3.6520	-0.0117	-0.0117	0.0000	0.0117	-0.0059	-0.0059	0.0000	0.0176	0.0000	-0.0117	-0.0117	-0.0117
3.6554	-0.0117	-0.0176	-0.0059	0.0146	-0.0029	-0.0117	0.0000	0.0176	0.0000	-0.0117	-0.0117	-0.0117
3.6588	-0.0117	-0.0234	-0.0117	0.0176	0.0000	-0.0176	0.0059	0.0176	0.0000	-0.0117	-0.0117	-0.0117
3.6622	-0.0117	-0.0234	-0.0117	0.0176	0.0000	-0.0176	0.0117	0.0117	0.0000	-0.0117	-0.0117	-0.0117
3.6655	-0.0176	-0.0234	-0.0059	0.0205	-0.0059	-0.0146	0.0117	0.0176	-0.0059	-0.0117	-0.0176	-0.0117
3.6689	-0.0234	-0.0234	0.0000	0.0234	-0.0117	-0.0117	0.0117	0.0176	-0.0117	-0.0117	-0.0234	-0.0117
3.6723	-0.0234	-0.0234	0.0000	0.0234	-0.0117	-0.0117	0.0117	0.0176	-0.0117	-0.0117	-0.0234	-0.0117
3.6757	-0.0176	-0.0234	-0.0059	0.0205	-0.0059	-0.0146	0.0117	0.0176	-0.0117	-0.0117	-0.0176	-0.0117
3.6791	-0.0117	-0.0234	-0.0117	0.0176	0.0000	-0.0176	0.0117	0.0176	-0.0117	-0.0117	-0.0117	-0.0117
3.6824	-0.0117	-0.0234	-0.0117	0.0176	0.0000	-0.0176	0.0117	0.0176	-0.0117	-0.0117	-0.0117	-0.0117
3.6858	-0.0117	-0.0234	-0.0117	0.0176	0.0000	-0.0176	0.0117	0.0117	-0.0117	-0.0117	-0.0117	-0.0117
3.6892	-0.0117	-0.0234	-0.0117	0.0176	0.0000	-0.0176	0.0117	0.0059	-0.0117	-0.0117	-0.0117	-0.0117
3.6926	-0.0176	-0.0234	-0.0059	0.0205	-0.0059	-0.0146	0.0117	0.0000	-0.0117	-0.0117	-0.0176	-0.0117
3.6959	-0.0234	-0.0234	0.0000	0.0234	-0.0117	-0.0117	0.0117	0.0000	-0.0117	-0.0176	-0.0234	-0.0117
3.6993	-0.0234	-0.0234	0.0000	0.0234	-0.0117	-0.0117	0.0117	0.0059	-0.0117	-0.0117	-0.0234	-0.0117
3.7027	-0.0234	-0.0293	-0.0059	0.0264	-0.0088	-0.0176	0.0117	0.0117	-0.0117	-0.0117	-0.0234	-0.0117
3.7061	-0.0234	-0.0352	-0.0117	0.0293	-0.0059	-0.0234	0.0117	0.0176	-0.0059	-0.0117	-0.0234	-0.0117
3.7095	-0.0234	-0.0352	-0.0117	0.0293	-0.0059	-0.0234	0.0117	0.0176	0.0000	-0.0117	-0.0234	-0.0117
3.7128	-0.0234	-0.0352	-0.0117	0.0293	-0.0059	-0.0234	0.0117	0.0117	0.0000	-0.0117	-0.0234	-0.0117
3.7162	-0.0234	-0.0352	-0.0117	0.0293	-0.0059	-0.0234	0.0117	0.0117	0.0000	-0.0117	-0.0234	-0.0117
3.7196	-0.0176	-0.0352	-0.0176	0.0264	0.0000	-0.0264	0.0117	0.0117	0.0000	-0.0117	-0.0234	-0.0117
3.7230	-0.0117	-0.0234	-0.0117	0.0176	0.0000	-0.0176	0.0117	0.0117	0.0000	-0.0117	-0.0234	-0.0117
3.7264	-0.0117	-0.0117	0.0000	0.0117	-0.0059	-0.0059	0.0176	0.0176	0.0000	-0.0117	-0.0234	-0.0117
3.7297	-0.0059	0.0000	0.0059	0.0029	-0.0059	0.0029	0.0176	0.0234	0.0000	-0.0117	-0.0117	-0.0117
3.7331	0.0000	0.0176	0.0176	-0.0088	-0.0088	0.0176	0.0234	0.0293	0.0059	-0.0059	-0.0117	-0.0059
3.7365	0.0059	0.0352	0.0293	-0.0205	-0.0117	0.0322	0.0293	0.0352	0.0117	0.0000	-0.0059	0.0000
3.7399	0.0176	0.0469	0.0293	-0.0322	-0.0059	0.0381	0.0352	0.0469	0.0234	0.0059	-0.0059	0.0000
3.7432	0.0352	0.0586	0.0234	-0.0469	0.0059	0.0410	0.0352	0.0469	0.0234	0.0117	0.0059	0.0059
3.7466	0.0469	0.0703	0.0234	-0.0586	0.0117	0.0469	0.0352	0.0469	0.0234	0.0117	0.0117	0.0117
3.7500	0.0469	0.0703	0.0234	-0.0586	0.0117	0.0469	0.0352	0.0527	0.0234	0.0117	0.0117	0.0117
3.7534	0.0469	0.0703	0.0234	-0.0586	0.0117	0.0469	0.0293	0.0469	0.0234	0.0117	0.0117	0.0117
3.7568	0.0469	0.0703	0.0234	-0.0586	0.0117	0.0469	0.0176	0.0410	0.0234	0.0059	0.0059	0.0000
3.7601	0.0410	0.0586	0.0176	-0.0498	0.0117	0.0381	0.0117	0.0352	0.0176	0.0000	0.0000	0.0000
3.7635	0.0293	0.0469	0.0176	-0.0381	0.0059	0.0322	0.0117	0.0352	0.0117	-0.0059	0.0000	0.0000
3.7669	0.0293	0.0352	0.0059	-0.0322	0.0117	0.0205	0.0117	0.0352	0.0117	-0.0059	-0.0059	0.0000
3.7703	0.0293	0.0234	-0.0059	-0.0264	0.0176	0.0088	0.0117	0.0352	0.0117	0.0000	-0.0059	0.0000
3.7736	0.0410	0.0000	-0.0410	-0.0205	0.0410	-0.0205	0.0117	0.0352	0.0117	0.0000	-0.0059	-0.0117
3.7770	0.0469	-0.0117	-0.0586	-0.0176	0.0527	-0.0352	0.0117	0.0352	0.0117	0.0000	-0.0059	-0.0117
3.7804	0.0469	-0.0234	-0.0703	-0.0117	0.0586	-0.0469	0.0117	0.0352	0.0059	-0.0059	-0.0059	-0.0117
3.7838	0.0410	-0.0352	-0.0762	-0.0029	0.0586	-0.0557	0.0117	0.0234	0.0000	-0.0117	-0.0117	-0.0117
3.7872	0.0234	-0.0527	-0.0762	0.0146	0.0498	-0.0645	0.0117	0.0117	-0.0117	-0.0234	-0.0234	-0.0234
3.7905	0.0000	-0.0703	-0.0703	0.0352	0.0352	-0.0703	0.0117	0.0059	-0.0234	-0.0352	-0.0293	-0.0293
3.7939	-0.0234	-0.0820	-0.0586	0.0527	0.0176	-0.0703	0.0117	0.0000	-0.0352	-0.0469	-0.0352	-0.0352
3.7973	-0.0469	-0.0938	-0.0469	0.0703	0.0000	-0.0703	0.0117	-0.0059	-0.0352	-0.0469	-0.0410	-0.0352
3.8007	-0.0586	-0.1055	-0.0469	0.0820	-0.0059	-0.0762	0.0117	0.0000	-0.0352	-0.0469	-0.0469	-0.0352
3.8041	-0.0645	-0.1055	-0.0410	0.0850	-0.0117	-0.0732	0.0059	0.0000	-0.0352	-0.0469	-0.0469	-0.0352
3.8074	-0.0645	-0.1055	-0.0410	0.0850	-0.0117	-0.0732	0.0000	-0.0059	-0.0352	-0.0410	-0.0352	-0.0352
3.8108	-0.0527	-0.0996	-0.0469	0.0762	-0.0029	-0.0732	0.0000	-0.0117	-0.0352	-0.0352	-0.0352	-0.0352
3.8142	-0.0469	-0.0996	-0.0527	0.0732	0.0029	-0.0762	0.0000	-0.0176	-0.0352	-0.0352	-0.0352	-0.0352
3.8176	-0.0469	-0.0996	-0.0527	0.0732	0.0029	-0.0762	0.0000	-0.0234	-0.0352	-0.0352	-0.0410	-0.0352
3.8209	-0.0527	-0.1055	-0.0527	0.0791	0.0000	-0.0791	0.0059	-0.0234	-0.0352	-0.0469	-0.0469	-0.0410
3.8243	-0.0645	-0.1172	-0.0527	0.0908	-0.0059	-0.0850	0.0176	-0.0117	-0.0352	-0.0469	-0.0527	-0.0469
3.8277	-0.0703	-0.1172	-0.0469	0.0938	-0.0117	-0.0820	0.0234	0.0000	-0.0234	-0.0469	-0.0527	-0.0469
3.8311	-0.0703	-0.1172	-0.0469	0.0938	-0.0117	-0.0820	0.0234	0.0117	-0.0176	-0.0469	-0.0527	-0.0469
3.8345	-0.0645	-0.1113	-0.0469	0.0879	-0.0088	-0.0791	0.0234	0.0234	-0.0117	-0.0410	-0.0410	-0.0410
3.8378	-0.0586	-0.1055	-0.0469	0.0820	-0.0059	-0.0762	0.0234	0.0234	-0.0117	-0.0352	-0.0352	-0.0410
3.8412	-0.0586	-0.1055	-0.0469	0.0820	-0.0059	-0.0762	0.0293	0.0117	-0.0117	-0.0352	-0.0352	-0.0410
3.8446	-0.0586	-0.1172	-0.0586	0.0879	0.0000	-0.0879	0.0352	0.0117	0.0000	-0.0352	-0.0352	-0.0469
3.8480	-0.0586	-0.1172	-0.0586	0.0879	0.0000	-0.0879	0.0469	0.0352	0.0117	-0.0234	-0.0352	-0.0527
3.8514	-0.0469	-0.1055	-0.0586	0.0762	0.0059	-0.0820	0.0586	0.0820	0.0410	0.0000	-0.0234	-0.0410
3.8547	-0.0176	-0.0469	-0.0293	0.0322	0.0059	-0.0381	0.0703	0.1406	0.0938	0.0469	0.0234	-0.0117
3.8581	0.0527	0.0586	0.0059	-0.0557	0.0234	0.0322	0.0586	0.2109	0.1758	0.1289	0.1055	0.0527
3.8615	0.1699	0.2344	0.0645	-0.2021	0.0527	0.1494	0.0234	0.2695	0.2578	0.2461	0.2227	0.1523
3.8649	0.3340	0.4688	0.1348	-0.4014	0.0996	0.3018	-0.0352	0.2813	0.3398	0.3867	0.3809	0.2813
3.8682	0.5098	0.7383	0.2285	-0.6240	0.1406	0.4834	-0.1172	0.2285	0.3984	0.5391	0.5449	0.4219
3.8716	0.6738	0.9961	0.3223	-0.8350	0.1758	0.6592	-0.1992	0.1055	0.4102	0.6680	0.6914	0.5508
3.8750	0.7793	1.2012	0.4219	-0.9902	0.1787	0.8115	-0.2813	-0.0820	0.3574	0.7500	0.7852	0.6445
3.8784	0.7969	1.3008	0.5039	-1.0488	0.1465	0.9023	-0.3516	-0.3047	0.2461	0.7500	0.8027	0.6797
3.8818	0.7148	1.2656	0.5508	-0.9902	0.0820	0.9082	-0.3867	-0.5156	0.0938	0.6680	0.7266	0.6445
3.8851	0.5391	1.0957	0.5566	-0.8174	-0.0088	0.8262	-0.3867	-0.6914	-0.0762	0.5156	0.5625	0.5391
3.8885	0.2930	0.8203	0.5273	-0.5566	-0.1172	0.6738	-0.3516	-0.8086	-0.2402	0.3047	0.3398	0.3750
3.8919	0.0352	0.4805	0.4453	-0.2578	-0.2051	0.4629	-0.3047	-0.8379	-0.3750	0.0762	0.1055	0.1875
3.8953	-0.1816	0.1406	0.3223	0.0205	-0.2520	0.2314	-0.2461	-0.7969	-0.4453	-0.1289	-0.1113	0.0117
3.8986	-0.3281	-0.1523	0.1758	0.2402	-0.2520	0.0117	-0.1934	-0.7031	-0.4688	-0.2813	-0.2695	-0.1406
3.9020	-0.3984	-0.3574	0.0410	0.3779	-0.2197	-0.1582	-0.1465	-0.5742	-0.4336	-0.3750	-0.3633	-0.2344
3.9054	-0.3867	-0.4688	-0.0820	0.4277	-0.1523	-0.2754	-0.1172	-0.4336	-0.3633	-0.3984	-0.3867	-0.2695
3.9088	-0.3164	-0.4922	-0.1758	0.4043	-0.0703	-0.3340	-0.0938	-0.3047	-0.2695	-0.3633	-0.3516	-0.2695
3.9122	-0.2227	-0.4570	-0.2344	0.3398	0.0059	-0.3457	-0.0703	-0.1875	-0.1758	-0.2988	-0.2930	-0.2344
3.9155	-0.1523	-0.3984	-0.2461	0.2754	0.0469	-0.3223	-0.0352	-0.0938	-0.0938	-0.2285	-0.2344	-0.1992
3.9189	-0.1055	-0.3398	-0.2344	0.2227	0.0645	-0.2871	0.0000	-0.0117	-0.0352	-0.1758	-0.1875	-0.1699
3.9223	-0.0938	-0.2930	-0.1992	0.1934	0.0527	-0.2461	0.0352	0.0469	0.0000	-0.1406	-0.1523	-0.1523
3.9257	-0.1055	-0.2695	-0.1641	0.1875	0.0293	-0.2168	0.0703	0.0879	0.0117	-0.1289	-0.1406	-0.1406
3.9291	-0.1289	-0.2578	-0.1289	0.1934	0.0000	-0.1934	0.0938	0.1172	0.0117	-0.1289	-0.1406	-0.1406
3.9324	-0.1406	-0.2578	-0.1172	0.1992	-0.0117	-0.1875	0.1055	0.1348	0.0117	-0.1289	-0.1406	-0.1406
3.9358	-0.1465	-0.2461	-0.0996	0.1963	-0.0234	-0.1729	0.1055	0.1406	0.0117	-0.1289	-0.1406	-0.1348
3.9392	-0.1406	-0.2344	-0.0938	0.1875	-0.0234	-0.1641	0.0996	0.1406	0.0117	-0.1172	-0.1289	-0.1230
3.9426	-0.1172	-0.2168	-0.0996	0.1670	-0.0088	-0.1582	0.0879	0.1348	0.0117	-0.1055	-0.1172	-0.1113
3.9459	-0.1055	-0.1992	-0.0938	0.1523	-0.0059	-0.1465	0.0820	0.1289	0.0117	-0.0938	-0.1055	-0.0938
3.9493	-0.0938	-0.1875	-0.0938	0.1406	0.0000	-0.1406	0.0820	0.1289	0.0176	-0.0820	-0.0938	-0.0879
3.9527	-0.0938	-0.1875	-0.0938	0.1406	0.0000	-0.1406	0.0820	0.1289	0.0234	-0.0820	-0.0938	-0.0820
3.9561	-0.0996	-0.1875	-0.0879	0.1436	-0.0059	-0.1377	0.0879	0.1289	0.0234	-0.0820	-0.0938	-0.0820
3.9595	-0.1055	-0.1875	-0.0820	0.1465	-0.0117	-0.1348	0.0938	0.1289	0.0176	-0.0820	-0.0938	-0.0820
3.9628	-0.1055	-0.1875	-0.0820	0.1465	-0.0117	-0.1348	0.0938	0.1289	0.0117	-0.0820	-0.0938	-0.0820
3.9662	-0.1055	-0.1758	-0.0703	0.1406	-0.0176	-0.1230	0.0938	0.1289	0.0117	-0.0820	-0.0879	-0.0820
3.9696	-0.0938	-0.1641	-0.0703	0.1289	-0.0117	-0.1172	0.0879	0.1289	0.0117	-0.0762	-0.0762	-0.0762
3.9730	-0.0820	-0.1523	-0.0703	0.1172	-0.0059	-0.1113	0.0762	0.1172	0.0234	-0.0703	-0.0703	-0.0645
3.9764	-0.0703	-0.1406	-0.0703	0.1055	0.0000	-0.1055	0.0703	0.1055	0.0234	-0.0586	-0.0586	-0.0586
3.9797	-0.0703	-0.1289	-0.0586	0.0996	-0.0059	-0.0938	0.0703	0.1055	0.0234	-0.0469	-0.0527	-0.0527
3.9831	-0.0703	-0.1289	-0.0586	0.0996	-0.0059	-0.0938	0.0703	0.1055	0.0234	-0.0469	-0.0527	-0.0469
3.9865	-0.0703	-0.1289	-0.0586	0.0996	-0.0059	-0.0938	0.0703	0.1055	0.0234	-0.0469	-0.0586	-0.0469
3.9899	-0.0703	-0.1289	-0.0586	0.0996	-0.0059	-0.0938	0.0703	0.1055	0.0176	-0.0469	-0.0586	-0.0469
3.9932	-0.0703	-0.1289	-0.0586	0.0996	-0.0059	-0.0938	0.0703	0.1055	0.0117	-0.0469	-0.0586	-0.0469
3.9966	-0.0703	-0.1230	-0.0527	0.0967	-0.0088	-0.0879	0.0645	0.1055	0.0117	-0.0469	-0.0469	-0.0469
4.0000	-0.0645	-0.1172	-0.0527	0.0908	-0.0059	-0.0850	0.0586	0.0996	0.0117	-0.0410	-0.0410	-0.0410
4.0034	-0.0527	-0.1055	-0.0527	0.0791	0.0000	-0.0791	0.0586	0.0938	0.0176	-0.0293	-0.0410	-0.0410
4.0068	-0.0469	-0.0938	-0.0469	0.0703	0.0000	-0.0703	0.0586	0.0938	0.0234	-0.0234	-0.0352	-0.0352
4.0101	-0.0352	-0.0820	-0.0469	0.0586	0.0059	-0.0645	0.0586	0.0938	0.0234	-0.0234	-0.0293	-0.0352
4.0135	-0.0352	-0.0703	-0.0352	0.0527	0.0000	-0.0527	0.0586	0.0938	0.0234	-0.0234	-0.0234	-0.0234
4.0169	-0.0293	-0.0645	-0.0352	0.0469	0.0029	-0.0498	0.0586	0.0938	0.0234	-0.0234	-0.0234	-0.0234
4.0203	-0.0293	-0.0645	-0.0352	0.0469	0.0029	-0.0498	0.0586	0.0938	0.0293	-0.0176	-0.0176	-0.0234
4.0236	-0.0234	-0.0527	-0.0293	0.0381	0.0029	-0.0410	0.0469	0.0996	0.0352	-0.0117	-0.0176	-0.0234
4.0270	-0.0176	-0.0469	-0.0293	0.0322	0.0059	-0.0381	0.0469	0.1055	0.0352	-0.0117	-0.0117	-0.0176
4.0304	-0.0176	-0.0410	-0.0234	0.0293	0.0029	-0.0322	0.0469	0.1055	0.0410	-0.0059	-0.0059	-0.0117
4.0338	-0.0059	-0.0410	-0.0352	0.0234	0.0146	-0.0381	0.0469	0.1055	0.0469	0.0059	0.0000	-0.0117
4.0372	0.0000	-0.0352	-0.0352	0.0176	0.0176	-0.0352	0.0410	0.1055	0.0527	0.0059	0.0000	-0.0117
4.0405	0.0000	-0.0234	-0.0234	0.0117	0.0117	-0.0234	0.0352	0.1113	0.0586	0.0117	0.0059	-0.0059
4.0439	0.0059	-0.0176	-0.0234	0.0059	0.0146	-0.0205	0.0352	0.1172	0.0586	0.0117	0.0059	0.0000
4.0473	0.0059	-0.0117	-0.0176	0.0029	0.0117	-0.0146	0.0352	0.1230	0.0586	0.0234	0.0117	0.0000
4.0507	0.0176	0.0000	-0.0176	-0.0088	0.0176	-0.0088	0.0352	0.1289	0.0645	0.0234	0.0117	0.0059
4.0541	0.0234	0.0117	-0.0117	-0.0176	0.0176	0.0000	0.0352	0.1289	0.0703	0.0234	0.0117	0.0117
4.0574	0.0293	0.0234	-0.0059	-0.0264	0.0176	0.0088	0.0352	0.1348	0.0703	0.0234	0.0176	0.0176
4.0608	0.0410	0.0352	-0.0059	-0.0381	0.0234	0.0146	0.0352	0.1406	0.0762	0.0293	0.0293	0.0176
4.0642	0.0469	0.0469	0.0000	-0.0469	0.0234	0.0234	0.0352	0.1406	0.0820	0.0410	0.0352	0.0234
4.0676	0.0586	0.0586	0.0000	-0.0586	0.0293	0.0293	0.0352	0.1406	0.0879	0.0410	0.0410	0.0293
4.0709	0.0645	0.0703	0.0059	-0.0674	0.0293	0.0381	0.0293	0.1406	0.0879	0.0469	0.0527	0.0410
4.0743	0.0645	0.0820	0.0176	-0.0732	0.0234	0.0498	0.0234	0.1465	0.0938	0.0527	0.0586	0.0469
4.0777	0.0703	0.0938	0.0234	-0.0820	0.0234	0.0586	0.0234	0.1523	0.0938	0.0586	0.0586	0.0469
4.0811	0.0820	0.1055	0.0234	-0.0938	0.0293	0.0645	0.0176	0.1523	0.0938	0.0645	0.0645	0.0469
4.0845	0.0879	0.1172	0.0293	-0.1025	0.0293	0.0732	0.0117	0.1465	0.0938	0.0762	0.0645	0.0527
4.0878	0.0938	0.1289	0.0352	-0.1113	0.0293	0.0820	0.0117	0.1406	0.0938	0.0820	0.0703	0.0645
4.0912	0.0996	0.1406	0.0410	-0.1201	0.0293	0.0908	0.0117	0.1406	0.0938	0.0820	0.0762	0.0703
4.0946	0.0996	0.1523	0.0527	-0.1260	0.0234	0.1025	0.0059	0.1406	0.0879	0.0820	0.0820	0.0703
4.0980	0.1113	0.1641	0.0527	-0.1377	0.0293	0.1084	0.0000	0.1348	0.0820	0.0820	0.0820	0.0762
4.1014	0.1172	0.1758	0.0586	-0.1465	0.0293	0.1172	0.0000	0.1289	0.0820	0.0820	0.0820	0.0820
4.1047	0.1172	0.1875	0.0703	-0.1523	0.0234	0.1289	0.0000	0.1230	0.0762	0.0820	0.0820	0.0820
4.1081	0.1172	0.1875	0.0703	-0.1523	0.0234	0.1289	0.0000	0.1172	0.0762	0.0820	0.0820	0.0820
4.1115	0.1172	0.1875	0.0703	-0.1523	0.0234	0.1289	-0.0117	0.1055	0.0645	0.0820	0.0820	0.0820
4.1149	0.1172	0.1934	0.0762	-0.1553	0.0205	0.1348	-0.0117	0.0996	0.0586	0.0820	0.0820	0.0820
4.1182	0.1172	0.1992	0.0820	-0.1582	0.0176	0.1406	-0.0117	0.0938	0.0586	0.0820	0.0820	0.0820
4.1216	0.1172	0.1992	0.0820	-0.1582	0.0176	0.1406	-0.0117	0.0820	0.0527	0.0762	0.0820	0.0820
4.1250	0.1113	0.1992	0.0879	-0.1553	0.0117	0.1436	-0.0117	0.0703	0.0469	0.0703	0.0762	0.0762
4.1284	0.1055	0.1934	0.0879	-0.1494	0.0088	0.1406	-0.0234	0.0586	0.0352	0.0703	0.0703	0.0762
4.1318	0.0996	0.1875	0.0879	-0.1436	0.0059	0.1377	-0.0234	0.0469	0.0293	0.0703	0.0703	0.0703
4.1351	0.0938	0.1758	0.0820	-0.1348	0.0059	0.1289	-0.0234	0.0352	0.0234	0.0645	0.0703	0.0703
4.1385	0.0820	0.1641	0.0820	-0.1230	0.0000	0.1230	-0.0234	0.0176	0.0117	0.0586	0.0586	0.0645
4.1419	0.0703	0.1465	0.0762	-0.1084	-0.0029	0.1113	-0.0234	0.0000	0.0000	0.0586	0.0527	0.0586
4.1453	0.0586	0.1289	0.0703	-0.0938	-0.0059	0.0996	-0.0234	-0.0117	-0.0117	0.0469	0.0410	0.0469
4.1486	0.0469	0.1055	0.0586	-0.0762	-0.0059	0.0820	-0.0234	-0.0293	-0.0176	0.0352	0.0352	0.0352
4.1520	0.0352	0.0820	0.0469	-0.0586	-0.0059	0.0645	-0.0234	-0.0469	-0.0234	0.0234	0.0234	0.0234
4.1554	0.0234	0.0586	0.0352	-0.0410	-0.0059	0.0469	-0.0234	-0.0586	-0.0352	0.0117	0.0117	0.0234
4.1588	0.0059	0.0352	0.0293	-0.0205	-0.0117	0.0322	-0.0234	-0.0703	-0.0469	0.0000	0.0000	0.0117
4.1622	-0.0059	0.0117	0.0176	-0.0029	-0.0117	0.0146	-0.0117	-0.0820	-0.0586	-0.0117	-0.0059	0.0000
4.1655	-0.0234	-0.0117	0.0117	0.0176	-0.0176	0.0000	-0.0117	-0.0938	-0.0645	-0.0234	-0.0176	-0.0117
4.1689	-0.0352	-0.0352	0.0000	0.0352	-0.0176	-0.0176	-0.0117	-0.0996	-0.0703	-0.0293	-0.0234	-0.0117
4.1723	-0.0469	-0.0527	-0.0059	0.0498	-0.0205	-0.0293	-0.0117	-0.1055	-0.0703	-0.0352	-0.0352	-0.0234
4.1757	-0.0527	-0.0703	-0.0176	0.0615	-0.0176	-0.0439	-0.0117	-0.1113	-0.0703	-0.0410	-0.0410	-0.0352
4.1791	-0.0586	-0.0820	-0.0234	0.0703	-0.0176	-0.0527	-0.0117	-0.1172	-0.0703	-0.0469	-0.0469	-0.0352
4.1824	-0.0645	-0.0938	-0.0293	0.0791	-0.0176	-0.0615	-0.0117	-0.1172	-0.0703	-0.0527	-0.0469	-0.0410
4.1858	-0.0703	-0.0996	-0.0293	0.0850	-0.0205	-0.0645	-0.0117	-0.1172	-0.0703	-0.0586	-0.0469	-0.0410
4.1892	-0.0703	-0.1055	-0.0352	0.0879	-0.0176	-0.0703	-0.0117	-0.1172	-0.0703	-0.0586	-0.0527	-0.0469
4.1926	-0.0703	-0.1055	-0.0352	0.0879	-0.0176	-0.0703	-0.0117	-0.1172	-0.0703	-0.0586	-0.0586	-0.0527
4.1959	-0.0703	-0.1113	-0.0410	0.0908	-0.0146	-0.0762	-0.0117	-0.1172	-0.0703	-0.0586	-0.0586	-0.0586
4.1993	-0.0703	-0.1172	-0.0469	0.0938	-0.0117	-0.0820	-0.0117	-0.1113	-0.0703	-0.0586	-0.0586	-0.0586
4.2027	-0.0703	-0.1172	-0.0469	0.0938	-0.0117	-0.0820	-0.0117	-0.1055	-0.0703	-0.0586	-0.0586	-0.0527
